timestamp,emg1,emg2,emg3,emg4,emg5,emg6,emg7,emg8
1443289855284119,-1,-5,-4,-4,0,-2,-2,-1
1443289855284119,-5,-5,-1,1,-2,-1,0,-1
1443289855286123,-4,-16,-3,-2,1,1,3,0
1443289855286123,-1,7,-1,-1,-1,-1,3,-1
1443289855299129,1,15,4,1,-2,-1,-1,0
1443289855299129,-3,-1,0,-2,-1,1,0,0
1443289855301132,0,-23,-4,0,1,0,-4,-1
1443289855301132,0,7,2,1,0,0,-1,-1
1443289855322145,1,-5,-1,2,0,-1,3,0
1443289855322145,-5,-9,-2,-1,-1,1,1,1
1443289855323145,-4,4,-1,-3,-1,-1,-1,-2
1443289855323145,0,7,-3,-4,0,-2,-5,-1
1443289855344159,0,-8,-2,0,-2,-3,-2,-1
1443289855344159,-5,24,7,3,1,1,-2,0
1443289855346161,6,-7,-6,-4,-2,-2,-2,-2
1443289855346161,-3,-13,-2,0,1,0,0,0
1443289855359170,-3,-10,-1,-2,-2,0,1,-1
1443289855359170,2,9,1,-3,-1,0,0,0
1443289855365180,-7,-6,1,2,1,0,1,0
1443289855365180,-7,-15,-3,-3,-1,-1,-4,-4
1443289855381183,-1,5,-4,-1,0,0,-2,-2
1443289855381183,-3,-9,-4,-1,-2,-2,-1,-1
1443289855389191,2,10,0,1,0,-2,0,0
1443289855389191,4,9,-1,-5,-2,-2,-1,0
1443289855404201,-7,-7,0,6,0,1,-1,-1
1443289855404201,12,14,-1,0,0,-1,-1,0
1443289855406202,-9,-18,1,-1,-2,-1,-1,0
1443289855406202,-3,-4,-8,-1,0,-2,0,-1
1443289855419209,6,10,8,-4,-1,1,-1,1
1443289855419209,-2,-6,0,1,-2,-1,1,-1
1443289855426214,-3,-13,-2,3,1,1,-1,1
1443289855426214,1,5,0,-2,-2,0,0,-1
1443289855442224,-2,1,-2,-5,-1,-2,-2,-2
1443289855442224,2,-3,-1,-3,-1,-2,-1,0
1443289855443225,-2,-5,1,0,0,1,-6,0
1443289855443225,-3,16,4,5,2,1,0,4
1443289855464240,14,5,-4,0,-1,-2,1,0
1443289855464240,-13,-1,0,-3,-3,0,2,-2
1443289855466241,-2,-8,-2,-6,-1,-1,-1,-4
1443289855466241,-3,-5,-3,0,0,-1,-1,-1
1443289855479249,-3,-11,0,0,0,0,-1,0
1443289855479249,5,-10,-5,1,0,-2,-4,0
1443289855485254,-1,17,0,-1,-1,-1,-1,1
1443289855485254,-6,11,3,1,-3,-1,-2,-2
1443289855502269,-1,-2,1,-1,0,0,0,1
1443289855502269,-1,-6,-3,-5,-3,-2,-2,-3
1443289855503266,4,17,-6,2,-1,0,2,0
1443289855503266,3,-12,3,-1,-1,-1,2,-1
1443289855524280,-10,-11,-6,-1,-1,-1,-1,0
1443289855524280,9,15,1,-2,-5,-3,-5,-1
1443289855526281,-4,-7,2,-5,0,0,1,-1
1443289855526281,4,-3,-2,3,-1,0,-2,-1
1443289855539406,-3,-1,-2,0,0,0,-1,-1
1443289855539406,-4,-8,2,0,1,1,0,1
1443289855545295,-1,9,1,-2,-4,-2,1,-1
1443289855545295,0,-12,-2,-4,-3,-2,-2,-2
1443289855562305,-4,-2,1,-2,-2,0,-1,0
1443289855562305,7,20,3,1,1,0,3,0
1443289855563304,-2,15,1,-2,-2,-2,0,-1
1443289855563304,-2,-17,-2,-1,-3,-3,0,-1
1443289855584318,-3,3,-1,-2,-3,-1,-6,-5
1443289855584318,-1,-16,-5,-2,0,1,3,3
1443289855586323,4,4,4,2,1,-2,1,0
1443289855586323,-2,9,1,1,1,-1,2,0
1443289855599329,-3,-4,-1,-2,-1,-3,-2,-2
1443289855599329,-10,-23,-8,-1,1,-1,-4,-2
1443289855605336,2,-3,-1,-1,-1,-1,-2,2
1443289855605336,2,5,2,-1,-3,0,-3,0
1443289855622344,1,15,1,-1,-1,-2,1,0
1443289855622344,-4,-13,-1,-1,0,0,0,-2
1443289855623346,-1,2,0,2,0,0,-1,0
1443289855623346,1,-5,2,-3,1,0,0,0
1443289855644362,-1,2,0,2,-1,0,-1,0
1443289855644362,0,15,-1,-2,-3,-2,-3,-2
1443289855646362,-3,-23,-5,1,0,-2,-2,-2
1443289855646362,-1,-3,-5,-2,0,0,-1,0
1443289855659369,-1,-5,-4,-4,-3,-3,1,-1
1443289855659369,-3,-1,-4,-8,-4,0,-2,0
1443289855667374,0,-2,5,9,0,-1,0,0
1443289855667374,2,-2,0,0,1,0,-1,0
1443289855682542,-3,18,1,4,-1,-2,-1,-1
1443289855682542,-1,-4,-3,0,-1,-3,1,-2
1443289855683386,5,5,-3,-7,-2,0,-6,1
1443289855683386,-5,-2,-1,-1,0,2,2,-1
1443289855704404,1,-16,-4,-1,0,1,1,1
1443289855704404,-1,18,3,2,0,-2,-2,-3
1443289855706410,-5,-9,-4,-1,-3,-1,3,-1
1443289855706410,1,-1,3,-1,-1,0,4,2
1443289855718409,0,-13,-1,0,1,-1,-3,-2
1443289855718409,4,18,6,1,-1,2,1,0
1443289855727417,-4,-11,-10,-1,0,0,0,0
1443289855727417,0,2,-1,-4,-2,-1,-4,-1
1443289855742535,-3,-5,-1,-4,2,0,2,-1
1443289855742535,-1,0,1,1,0,-1,-7,0
1443289855743425,4,7,-1,-1,0,0,0,1
1443289855743425,-1,-6,-1,-3,-1,-2,0,0
1443289855764440,-4,-11,-1,1,-1,0,-1,-1
1443289855764440,10,15,0,3,0,-2,-1,0
1443289855766441,-7,-12,-1,-3,-2,-1,-1,-2
1443289855766441,0,7,1,0,-1,-2,0,0
1443289855778449,2,6,2,-7,-4,-2,-2,-2
1443289855778449,-4,-12,-2,5,0,-2,0,1
1443289855787467,5,9,2,-2,-2,1,1,-1
1443289855787467,-7,-48,-8,-1,1,-1,0,-1
1443289855802471,9,80,5,0,-1,-1,-2,0
1443289855802471,-3,-4,2,0,1,-1,0,-1
1443289855803467,0,-14,-3,-3,1,-2,-1,0
1443289855803467,-4,4,-3,1,-2,-2,-4,-2
1443289855824481,0,-26,-3,-3,-2,0,-1,1
1443289855824481,-1,-2,-5,-1,0,2,1,-1
1443289855826483,-1,14,7,1,-1,0,-1,-1
1443289855826483,0,1,-4,-2,-2,0,-2,-1
1443289855838495,0,-2,1,0,0,0,0,-2
1443289855838495,-4,-4,-1,-1,-1,0,0,2
1443289855847500,-1,-13,-3,-1,-1,1,0,-2
1443289855847500,9,18,-1,-1,-2,-1,-2,1
1443289855861505,-2,-8,-1,1,0,-1,1,-1
1443289855861505,-10,-9,-2,0,-1,-2,-1,-2
1443289855863507,0,-1,-1,0,-1,-1,-1,1
1443289855863507,-1,5,1,0,-2,-2,-3,-1
1443289855884523,1,3,-2,-1,-1,-2,-1,1
1443289855884523,-1,-23,-2,-2,-1,3,10,3
1443289855890526,2,16,4,0,-2,-3,-2,-3
1443289855890526,0,6,1,0,-1,1,0,-2
1443289855898532,-2,-20,-8,0,-1,0,-2,-1
1443289855898532,-1,4,-3,-5,-2,-1,-3,-2
1443289855907536,6,1,1,3,0,2,2,1
1443289855907536,-13,-19,-1,2,1,0,-1,-1
1443289855921545,3,19,7,1,-3,0,-2,-1
1443289855921545,-1,-12,0,-1,-1,-1,-1,-1
1443289855923547,-4,2,-4,-3,-1,-2,-3,1
1443289855923547,4,9,1,0,0,-3,-2,-3
1443289855944559,-3,-10,-1,-2,-3,0,-1,-1
1443289855944559,5,5,-1,-3,-1,0,-1,0
1443289855946561,-7,-12,-2,-1,-1,-2,-1,-1
1443289855946561,3,29,-2,-3,-2,-1,-1,0
1443289855958570,-1,-12,-2,-3,0,-2,1,1
1443289855958570,2,8,4,6,1,-3,-1,-1
1443289855967576,-2,-5,-2,-2,-1,-2,-3,-1
1443289855967576,-4,-4,1,2,-1,0,0,1
1443289855982584,1,4,2,0,0,0,-1,0
1443289855982584,-5,-1,-1,-3,-2,-2,-3,-2
1443289855983586,-4,-13,-5,-4,-2,-3,1,-2
1443289855983586,0,-5,0,-1,1,1,-1,0
1443289856004608,2,1,-3,-1,1,-2,0,-1
1443289856004608,-1,2,4,3,0,0,-2,-3
1443289856006601,6,8,0,-2,-3,-1,-1,-3
1443289856006601,-7,-10,-2,-6,-1,-2,-1,-1
1443289856018609,-1,-12,-3,2,-2,0,-3,-1
1443289856018609,-2,-4,-2,0,-1,-2,2,0
1443289856027614,-1,2,2,-2,0,1,-1,-1
1443289856027614,0,-6,-3,0,-1,-1,0,-1
1443289856041626,-1,1,-1,-1,-1,0,0,1
1443289856041626,-6,8,1,-2,-1,-1,-4,-4
1443289856043628,-1,9,1,-1,-1,-1,0,-1
1443289856043628,0,-8,-1,-2,-2,-1,-4,-1
1443289856064640,0,-2,-5,1,-1,-1,1,1
1443289856064640,-2,-7,-1,-1,-1,-1,-2,-1
1443289856066641,5,10,0,-1,0,0,-3,-1
1443289856066641,-4,-2,0,-3,-1,1,3,-1
1443289856078649,-5,-10,3,1,0,-1,-1,-1
1443289856078649,4,17,0,-3,-1,1,-1,1
1443289856087655,-2,-14,-2,1,-2,-1,0,-1
1443289856087655,3,5,1,4,0,-2,-3,-3
1443289856102667,1,2,0,-4,-1,-1,-5,1
1443289856102667,-9,-19,-7,-8,-1,0,-1,-2
1443289856103667,-3,-2,2,4,-1,-1,-4,-1
1443289856103667,3,14,4,-1,-1,0,1,1
1443289856124681,-2,-4,0,2,-1,0,1,0
1443289856124681,5,-2,0,-1,-1,-3,-3,-2
1443289856125682,-6,-8,-4,-4,0,-1,1,0
1443289856125682,-1,2,0,1,-1,0,-1,-1
1443289856146698,-5,-9,-2,-2,0,1,0,-1
1443289856146698,1,18,0,-1,-3,-3,-2,-1
1443289856148698,3,2,1,3,-1,-1,0,-2
1443289856148698,0,7,-2,-3,0,-1,0,1
1443289856161704,-2,-6,0,1,0,-1,0,0
1443289856161704,-4,-8,-3,0,0,-2,0,-1
1443289856163709,-2,-4,1,1,0,1,2,1
1443289856163709,-4,-9,0,1,0,-1,-1,-2
1443289856184722,5,8,-6,-4,-1,-1,-1,-1
1443289856184722,-1,-6,-4,-1,-2,1,-2,-1
1443289856185721,3,28,4,-6,-3,-2,0,-1
1443289856185721,-2,-11,-3,4,-2,-3,-1,-1
1443289856206741,3,12,2,1,0,1,0,-3
1443289856206741,-5,-12,0,2,0,-1,-1,0
1443289856208736,0,-12,-7,-3,-2,0,-2,2
1443289856208736,-3,5,-1,-5,-3,2,0,-1
1443289856222747,-1,-7,-2,1,0,0,0,1
1443289856222747,2,5,2,0,0,-2,0,-2
1443289856227749,-5,-14,-3,0,0,-1,-2,-1
1443289856227749,3,10,2,1,2,-2,0,-1
1443289856244761,-3,-9,-4,-5,-3,-3,-1,-2
1443289856244761,1,4,2,1,-2,0,0,0
1443289856245763,0,-8,0,-1,-1,0,0,1
1443289856245763,-3,-8,-10,-3,-1,-1,-1,0
1443289856266779,1,3,1,-3,-1,-1,-1,-3
1443289856266779,2,1,-4,-3,-1,0,2,3
1443289856268789,1,-3,0,-2,-2,-3,-6,-2
1443289856268789,0,3,2,4,-1,1,2,0
1443289856281785,-5,-2,2,-1,-2,-1,-1,-1
1443289856281785,4,13,0,0,-1,-1,-2,0
1443289856287790,-5,-7,-2,-2,-2,-1,0,-1
1443289856287790,6,7,-1,-1,-2,0,-2,-1
1443289856304808,-5,-13,-1,-2,-3,-1,-1,-2
1443289856304808,2,-1,0,-4,-3,-1,-2,-2
1443289856305802,-7,-9,-2,-1,-2,2,-1,0
1443289856305802,-3,1,-1,0,0,-2,-1,-1
1443289856326816,-1,-6,-2,-1,1,-1,0,-1
1443289856326816,-3,21,3,0,0,0,-1,-2
1443289856328817,8,10,3,3,1,0,2,-1
1443289856328817,0,-33,-8,-2,-1,1,0,0
1443289856340827,5,24,-1,1,-1,-1,1,0
1443289856340827,-5,0,-1,-4,0,2,0,0
1443289856347830,-2,-3,-2,0,0,1,1,-2
1443289856347830,-3,2,3,0,1,-1,-1,-1
1443289856364842,8,-2,-4,-3,-2,-1,-2,-1
1443289856364842,-4,-12,-1,0,0,1,3,1
1443289856365842,-6,3,-1,-1,-2,-2,0,-1
1443289856365842,-2,5,-2,-1,-1,0,-2,1
1443289856386855,5,-19,-3,-1,-1,-2,0,-3
1443289856386855,0,31,7,3,-1,0,1,0
1443289856388856,3,-5,-2,-4,0,0,1,-1
1443289856388856,-5,-1,1,0,0,-1,0,-2
1443289856401865,-8,-14,0,1,0,-1,-2,0
1443289856401865,2,-1,-4,-2,-1,-2,-3,-1
1443289856407876,-4,8,-1,0,-1,-1,0,1
1443289856407876,10,9,2,-3,-2,-2,0,-1
1443289856424880,-4,0,0,-1,0,1,1,0
1443289856424880,-1,-20,-5,2,-2,-2,-1,-1
1443289856425880,-3,-4,-5,-5,-1,0,0,0
1443289856425880,0,15,-2,5,-1,-1,-3,0
1443289856446894,-1,3,3,-1,-1,-1,0,-1
1443289856446894,-2,-16,-4,0,0,-2,-2,-2
1443289856448895,0,-4,0,1,-2,-1,-1,-1
1443289856448895,0,0,-1,-5,-3,-2,-1,-1
1443289856460914,0,17,6,-1,-3,-2,-1,-1
1443289856460914,0,-18,-14,-1,-3,-3,0,0
1443289856475914,0,5,0,-4,0,0,1,1
1443289856475914,-4,-22,-3,0,2,2,2,0
1443289856484920,7,39,4,4,1,2,0,2
1443289856484920,0,-7,3,-3,-3,-2,-4,-3
1443289856485921,-4,6,-3,3,0,-1,1,0
1443289856485921,1,-2,-2,-3,-3,-1,-1,-2
1443289856506941,-12,0,-4,-4,-2,-3,-3,-1
1443289856506941,5,10,8,5,0,2,-1,-1
1443289856508935,10,0,-1,1,0,-2,-3,0
1443289856508935,-8,-7,3,0,0,0,-1,1
1443289856522031,1,-8,-3,2,1,0,1,-2
1443289856522031,-3,5,0,-4,-1,-1,-3,-3
1443289856527950,-2,-14,-1,-1,-1,-1,2,-1
1443289856527950,4,26,5,-1,-3,1,5,1
1443289856544960,-5,-48,-9,-3,-1,0,-1,-1
1443289856544960,3,27,1,0,-1,0,-1,-1
1443289856545962,1,1,5,1,-1,0,-3,-2
1443289856545962,-3,-4,-4,-6,-3,-3,0,-4
1443289856566976,-7,-10,4,4,0,1,-1,0
1443289856566976,-6,-15,-8,0,1,-1,0,0
1443289856568976,3,21,4,1,-1,-2,-3,-1
1443289856568976,5,7,0,2,0,-2,-3,-1
1443289856580987,-2,-2,3,-2,-2,-1,-4,-2
1443289856580987,-1,-14,-2,-4,-1,0,2,-1
1443289856587990,-6,2,1,0,-2,0,2,0
1443289856587990,-1,-3,-2,-2,-1,0,-2,-1
1443289856605007,2,7,-2,0,-1,0,0,0
1443289856605007,-3,-29,-6,-1,-1,-1,-3,-1
1443289856606002,1,8,-1,-2,-2,-2,-2,-1
1443289856606002,-4,9,2,0,0,-4,0,-2
1443289856627024,2,-4,-6,-6,-1,1,0,-2
1443289856627024,4,14,7,1,-1,2,-1,0
1443289856629016,-5,-19,-7,-2,1,0,-6,0
1443289856629016,0,-7,-2,-1,-3,-2,-1,0
1443289856641024,-1,5,-2,0,-2,-2,0,-1
1443289856641024,-3,-1,-6,-3,1,-2,2,1
1443289856650031,1,-3,4,1,2,1,1,-3
1443289856650031,0,-2,3,1,0,1,-3,0
1443289856665041,-6,-7,-3,-5,1,-1,-1,0
1443289856665041,0,6,0,7,0,1,0,0
1443289856666041,7,10,-4,-2,-1,0,0,-2
1443289856666041,-2,-17,-5,-3,-3,-1,-5,1
1443289856687055,-1,15,2,-4,-4,-3,2,0
1443289856687055,-3,-11,2,-1,-1,-1,-1,0
1443289856689055,-4,-6,-1,1,0,-1,0,-2
1443289856689055,1,0,-2,1,0,-1,-1,0
1443289856701074,-4,-6,3,3,2,0,-1,1
1443289856701074,-5,-9,-6,-7,-5,-1,-5,-3
1443289856710073,1,17,3,2,-2,-2,-1,0
1443289856710073,-4,-7,-2,-3,-1,-1,0,-3
1443289856725082,4,2,1,1,0,-3,-2,-1
1443289856725082,-4,-8,2,1,0,0,0,0
1443289856726081,1,0,-2,-3,-3,-2,-2,-1
1443289856726081,1,3,0,0,-1,-1,0,-2
1443289856747097,-1,-5,-3,2,2,1,0,-2
1443289856747097,-4,6,3,1,-1,0,2,-2
1443289856749096,-7,-15,-5,-3,-2,-1,-3,0
1443289856749096,7,25,1,-1,-2,-3,0,-1
1443289856761104,2,2,-2,-1,-3,-2,-1,-1
1443289856761104,2,-6,-1,-3,-1,0,-1,2
1443289856770110,-7,-28,-5,-3,0,-1,0,1
1443289856770110,1,14,5,1,1,1,-2,1
1443289856784120,0,10,1,3,0,0,-1,-1
1443289856784120,2,-6,-2,-6,-1,0,1,-1
1443289856786121,1,11,2,4,-1,0,1,0
1443289856786121,-8,-22,-3,2,1,0,-1,-1
1443289856807135,8,11,-1,-4,-2,-1,-1,-2
1443289856807135,1,-7,-4,1,-1,-2,2,1
1443289856809137,-1,15,3,-5,-3,-2,-6,0
1443289856809137,1,-5,-6,0,-2,-2,0,-1
1443289856821144,-3,-9,-2,-1,-3,-2,-7,-2
1443289856821144,-1,6,0,-2,0,-2,-1,-3
1443289856829150,-1,-10,0,2,1,0,2,1
1443289856829150,0,5,2,-2,-2,0,0,1
1443289856844159,-2,-18,-5,-1,-1,0,1,0
1443289856844159,2,22,-1,-3,-3,-4,-5,0
1443289856846161,1,-3,2,0,0,-2,-1,-1
1443289856846161,-3,0,1,-3,-1,1,0,-2
1443289856867175,2,8,0,-4,-1,0,-2,-1
1443289856867175,-3,-25,-1,4,0,0,-1,1
1443289856868177,-5,23,1,3,-1,0,1,0
1443289856868177,7,6,5,-4,-3,-1,-5,0
1443289856881185,-10,-12,-8,-1,1,1,-2,-1
1443289856881185,10,17,-2,-1,0,-1,1,-1
1443289856889194,2,-15,-2,-3,-1,-1,0,0
1443289856889194,-5,-14,-7,-6,-1,-2,1,-1
1443289856904200,1,-5,7,6,1,-1,-1,1
1443289856904200,-3,15,5,-2,0,0,-1,0
1443289856907202,1,-5,-6,-2,-1,0,-3,0
1443289856907202,-4,0,-2,1,0,1,1,0
1443289856927214,9,13,-1,0,-2,-1,-1,1
1443289856927214,-7,-21,-1,2,-2,0,-3,-2
1443289856928216,-1,6,1,-4,-1,-3,0,-2
1443289856928216,-1,-2,0,-1,0,-2,0,-1
1443289856940224,-6,1,2,-4,-1,-2,0,-2
1443289856940224,6,-3,-3,0,0,0,-1,-1
1443289856949229,-6,-20,-3,-2,-1,0,1,0
1443289856949229,-4,-5,-4,-1,-3,-2,-2,-3
1443289856964242,6,16,0,0,-1,-2,2,-1
1443289856964242,0,11,1,-1,-1,-2,1,-3
1443289856966243,-5,-26,-3,-1,1,0,0,-2
1443289856966243,3,8,2,2,1,1,1,1
1443289856987255,-1,4,2,-2,-1,-1,-1,-2
1443289856987255,1,5,-1,-3,-2,-3,-2,-1
1443289856988256,6,5,-1,-3,-2,0,2,0
1443289856988256,-8,-7,-1,3,3,1,12,3
1443289857000264,-4,-4,3,1,0,-1,-3,0
1443289857000264,1,7,-3,-1,1,1,1,1
1443289857009270,-1,0,0,-1,-2,-2,-5,-3
1443289857009270,-1,4,3,-7,-3,-1,-6,-3
1443289857024281,-5,-10,-1,-1,-2,0,3,1
1443289857024281,5,-4,-1,-1,-1,-2,-2,0
1443289857026281,0,7,0,-3,-2,-2,-1,-3
1443289857026281,0,-3,-5,2,-1,0,-2,-1
1443289857047295,0,9,0,-2,-3,0,-2,0
1443289857047295,-3,-6,0,-2,1,0,-3,0
1443289857048296,-2,-20,-1,0,-1,-1,0,3
1443289857048296,3,12,-4,-4,-3,-2,-2,-4
1443289857069311,-4,-8,-3,-1,-2,-1,0,-1
1443289857069311,-8,-9,2,0,0,-2,0,-4
1443289857071314,8,-5,-2,0,0,-1,0,-1
1443289857071314,-1,18,3,-3,-2,-1,-3,-1
1443289857084320,0,7,-1,2,1,0,1,1
1443289857084320,0,-8,-5,-2,-2,-2,0,-2
1443289857090324,-4,-4,-2,0,-1,0,-2,-2
1443289857090324,1,-9,-2,-1,-1,-2,-2,1
1443289857107335,-5,-2,-1,-1,0,-2,0,-1
1443289857107335,4,-20,1,-2,-2,0,-1,-2
1443289857109337,-4,30,4,1,-3,-1,3,0
1443289857109337,3,1,1,5,0,0,0,0
1443289857129349,-5,-6,-3,-3,0,0,0,-3
1443289857129349,6,9,1,1,-2,0,0,1
1443289857131352,-7,-8,-3,-2,-2,-1,-6,-3
1443289857131352,-3,-1,2,-1,-2,1,1,0
1443289857144359,-1,-15,-11,1,0,0,-1,0
1443289857144359,-1,5,4,1,2,0,0,0
1443289857146361,6,22,-6,-3,-2,-1,0,-2
1443289857146361,-5,-14,5,2,0,0,-4,-1
1443289857167381,5,11,4,-2,0,-1,-3,-2
1443289857167381,-5,-9,-4,-2,-1,-1,-2,0
1443289857168377,2,-4,1,0,0,0,0,2
1443289857168377,-6,-4,-4,0,-1,-1,-2,-2
1443289857189391,-1,-7,-4,-4,-4,1,-1,-1
1443289857189391,-4,3,0,-1,-2,-2,-1,-2
1443289857191392,-1,4,3,1,0,0,0,-1
1443289857191392,0,-6,-8,-6,-1,-2,-2,0
1443289857204400,-1,-6,9,5,3,0,-5,-2
1443289857204400,-2,15,-7,-4,-3,0,3,0
1443289857206402,-8,-12,0,4,-2,0,1,-1
1443289857206402,11,-5,-1,-2,-3,-3,-5,-1
1443289857227420,0,21,-1,-8,-3,-2,-4,-3
1443289857227420,2,12,3,5,0,0,1,1
1443289857228417,0,-12,-3,-2,1,-1,-1,0
1443289857228417,-7,-14,-2,1,-1,-1,2,1
1443289857249432,-4,-13,4,4,-2,0,0,0
1443289857249432,1,19,1,-4,-2,-1,-3,-1
1443289857251432,8,-4,-6,-3,-2,-2,-1,-2
1443289857251432,3,3,1,1,1,0,-1,0
1443289857264440,-3,-10,-5,-4,-1,-1,0,-1
1443289857264440,-7,-9,2,0,0,1,-2,-1
1443289857270446,-1,6,2,2,0,0,1,-1
1443289857270446,-5,-7,-1,-1,-2,0,0,-2
1443289857287460,2,2,-4,-2,-2,-2,3,0
1443289857287460,0,-15,-2,0,-3,0,4,1
1443289857288457,6,23,-3,-6,-1,-2,-3,-2
1443289857288457,0,15,3,-1,-1,0,0,-1
1443289857309472,-4,-1,-1,1,0,-2,-1,-3
1443289857309472,-2,-8,-3,-4,-2,-1,-4,-2
1443289857312474,-2,-16,-2,1,0,0,0,1
1443289857312474,-9,-19,1,2,2,1,-1,0
1443289857324527,1,16,-3,-3,-2,-1,-1,0
1443289857324527,1,8,2,-5,-3,-3,-8,-1
1443289857330485,-3,-19,-4,3,-1,2,1,0
1443289857330485,-1,18,0,-5,0,0,-1,-1
1443289857347498,3,-12,3,4,1,0,-1,0
1443289857347498,-6,-7,-3,1,2,0,-1,-1
1443289857348496,-5,1,-1,-1,-1,0,-2,-1
1443289857348496,3,9,-3,-2,-3,-1,0,0
1443289857369518,-2,-11,-2,-2,-1,0,0,-1
1443289857369518,2,21,-3,-3,-3,-2,-4,-4
1443289857371513,-7,-17,1,-1,0,1,-1,-1
1443289857371513,-1,-8,0,2,0,-1,0,1
1443289857383519,5,16,-1,-2,-1,-1,1,1
1443289857383519,0,-5,-1,0,-2,-2,0,-2
1443289857390533,-2,-17,0,-3,-1,-1,-1,1
1443289857390533,-2,22,1,0,0,-2,-3,-3
1443289857407540,0,3,-1,0,-1,0,1,0
1443289857407540,0,1,1,3,1,2,5,1
1443289857408537,1,-5,-6,0,-2,0,-3,-3
1443289857408537,-3,-10,-7,-6,-3,-2,-1,-1
1443289857429555,5,4,1,-2,-2,0,-4,-1
1443289857429555,-4,-1,5,8,2,-1,-1,0
1443289857431552,2,9,1,0,-1,1,4,1
1443289857431552,-1,-14,-3,2,-2,1,-1,-1
1443289857443565,-3,4,1,-1,1,-1,-3,-1
1443289857443565,-2,-15,-3,-2,-1,1,0,-2
1443289857450565,8,32,5,-1,0,-1,-2,-2
1443289857450565,1,1,0,-3,-2,1,-2,0
1443289857467577,-6,-20,-6,-1,-1,-2,-1,-1
1443289857467577,-1,13,0,-1,-2,-3,-2,0
1443289857468578,-4,-24,-5,-1,-1,-2,-2,-1
1443289857468578,-2,-4,2,0,-1,-2,1,0
1443289857489598,-6,17,2,-3,-1,0,0,-1
1443289857489598,6,-4,-1,-1,-3,0,0,1
1443289857491592,1,2,1,-4,-2,-1,-1,-2
1443289857491592,7,4,2,0,-1,-1,0,-1
1443289857503600,0,-15,-2,-1,-2,2,1,-1
1443289857503600,-9,-8,-7,-7,-3,-1,0,-3
1443289857510608,-2,15,8,3,0,-1,-1,1
1443289857510608,-2,-5,-2,1,1,0,-1,-2
1443289857527647,0,4,-5,0,0,-3,-1,-1
1443289857527647,-1,-37,-6,-6,-2,-1,-6,-2
1443289857528617,3,51,6,-2,-2,-2,1,-1
1443289857528617,-6,-5,-3,0,-1,-3,1,-1
1443289857549632,6,-9,-2,-5,0,0,2,2
1443289857549632,-1,9,1,5,2,1,0,-2
1443289857551631,-5,-16,-6,-1,-1,-1,-4,-2
1443289857551631,2,-4,2,0,-1,-2,1,-3
1443289857563641,-3,11,1,0,-3,-2,-5,0
1443289857563641,-9,-10,-2,-3,-1,0,0,0
1443289857572647,11,-7,-1,1,-1,-1,-1,0
1443289857572647,0,17,-6,-1,-1,-1,-2,-2
1443289857586656,-1,-14,0,-1,0,-1,-1,-4
1443289857586656,2,4,4,-4,-3,-1,-1,1
1443289857588656,-9,-10,-7,-2,-1,0,-1,-2
1443289857588656,-2,-15,-3,-4,-1,1,-2,-1
1443289857609675,-3,2,2,4,1,0,2,-1
1443289857609675,-6,4,-3,0,1,1,-1,-2
1443289857611673,5,-3,1,-3,-2,-2,2,0
1443289857611673,1,12,-1,-1,-2,0,1,0
1443289857623681,1,11,2,1,-1,0,0,1
1443289857623681,0,5,0,-1,0,-1,1,0
1443289857632686,-5,-9,-2,-4,-1,0,-1,1
1443289857632686,-1,-18,-2,-2,-2,0,-11,-3
1443289857646697,0,6,0,0,0,0,4,1
1443289857646697,-5,-7,0,-2,-1,0,1,0
1443289857648697,-3,9,2,5,0,-1,-2,-1
1443289857648697,3,4,0,0,0,0,1,2
1443289857669711,-2,-12,-5,-3,-3,-2,-5,-3
1443289857669711,1,-1,-2,0,-1,1,-1,0
1443289857671713,-2,0,3,1,2,-1,1,-2
1443289857671713,-1,0,2,1,1,0,0,0
1443289857683722,-3,-13,-4,0,0,1,1,-1
1443289857683722,2,17,1,-5,-2,-3,0,-3
1443289857692727,-7,-12,0,1,0,-1,-2,-1
1443289857692727,8,28,2,-1,-1,0,-1,-1
1443289857706735,0,-1,-2,0,-1,0,-1,-1
1443289857706735,-3,-9,-1,1,-1,0,-2,-1
1443289857708737,-1,-5,1,-2,0,0,-1,-1
1443289857708737,-1,-16,-1,2,0,-1,0,0
1443289857729753,-1,-1,-3,-2,-1,0,1,1
1443289857729753,4,19,1,-1,-2,-2,-1,-2
1443289857731753,-2,-1,-2,-3,-3,1,-1,-3
1443289857731753,-6,-7,0,-2,-1,-1,0,-1
1443289857743761,2,0,-1,-1,-2,0,-1,0
1443289857743761,1,-7,-1,-1,0,-1,1,1
1443289857752766,2,-2,-5,1,1,1,-2,1
1443289857752766,0,-8,0,2,-2,-1,-1,-2
1443289857766775,0,1,2,-3,-3,-2,-2,-2
1443289857766775,0,25,1,3,1,0,-5,0
1443289857768776,0,-1,-1,-4,-2,-1,2,0
1443289857768776,2,-4,-3,-1,-1,0,0,-1
1443289857789799,-3,-11,0,-1,0,-1,1,0
1443289857789799,5,5,0,1,-1,0,6,0
1443289857791793,0,0,-1,0,0,-2,0,0
1443289857791793,-1,1,-2,-2,-1,-2,2,1
1443289857803799,-6,1,-2,0,0,0,-2,-3
1443289857803799,1,-4,-2,0,-2,0,-1,0
1443289857811807,0,-4,2,-2,0,-1,-1,-2
1443289857811807,-9,-6,-3,-1,0,0,0,-2
1443289857826815,8,6,-1,0,0,0,-1,-1
1443289857826815,-2,-20,-3,-3,0,0,0,-1
1443289857828819,-4,-14,-3,1,-2,-2,2,-1
1443289857828819,6,39,7,-1,-1,0,2,0
1443289857849831,0,-2,-4,-3,-2,-1,-1,-1
1443289857849831,-4,-9,-2,0,-1,0,0,0
1443289857850832,-1,-10,-2,-2,-1,-3,-3,-3
1443289857850832,0,7,1,-2,0,-2,-3,-3
1443289857862841,-3,5,1,2,-1,1,2,0
1443289857862841,-7,-9,-3,-2,-2,-3,-2,-3
1443289857871846,4,9,-3,0,-2,-1,-6,-2
1443289857871846,-6,-17,-2,0,1,0,2,0
1443289857886857,4,4,1,-6,-1,-2,-2,-1
1443289857886857,4,3,3,6,-1,1,-1,-1
1443289857888856,-8,3,2,-2,-1,0,0,1
1443289857888856,2,-15,-3,-3,-1,-1,-3,-2
1443289857909872,-2,-11,1,2,-2,1,-1,-2
1443289857909872,1,18,2,-2,-1,-2,-1,-1
1443289857910872,1,-5,-3,-1,-1,-2,-3,-1
1443289857910872,-4,5,-3,1,0,2,3,-1
1443289857922881,-3,-8,0,1,-1,0,3,1
1443289857922881,-1,-23,-4,-2,0,-3,-1,-1
1443289857932888,0,11,3,1,-1,1,1,0
1443289857932888,7,-7,0,-2,-1,-2,-3,-1
1443289857946915,-11,6,-2,-1,0,-1,-1,1
1443289857946915,8,-13,2,0,0,-1,1,-1
1443289857948899,0,6,-5,-3,-1,-3,-2,-1
1443289857948899,1,3,-1,-1,-2,-1,-2,1
1443289857969912,2,-11,-2,1,-1,-2,-1,0
1443289857969912,-4,18,3,0,1,1,-1,-1
1443289857970911,-3,-8,-1,-1,0,2,0,0
1443289857970911,-3,-2,-1,1,-1,-2,-2,0
1443289857982925,4,9,3,0,-3,-1,-1,-1
1443289857982925,-4,-3,-5,-2,-3,-2,-1,-1
1443289857991925,0,1,-1,-1,-1,1,0,-1
1443289857991925,-6,-12,-2,0,0,0,1,1
1443289858006940,3,8,1,-2,-1,0,0,-2
1443289858006940,0,9,0,-1,-1,-3,-2,-1
1443289858008938,-2,-2,0,-2,-1,0,1,-2
1443289858008938,-3,-9,-2,2,-1,0,3,1
1443289858029951,-3,19,3,-4,-1,-5,-4,-4
1443289858029951,6,-6,-4,0,1,2,-1,3
1443289858030952,-2,1,2,3,1,-2,-1,0
1443289858030952,-1,-5,-1,-4,-1,-1,-2,-2
1443289858051966,0,-19,-6,0,0,0,2,-1
1443289858051966,2,1,-3,-2,-1,-1,4,0
1443289858053967,-3,-1,2,0,-1,-1,0,-1
1443289858053967,-2,1,-5,-5,-3,-2,-1,-4
1443289858066977,-1,6,2,-2,-1,1,-2,1
1443289858066977,5,5,1,-3,-1,-1,-3,-1
1443289858068978,-4,-23,-1,4,-1,1,3,1
1443289858068978,-3,4,1,1,1,-1,-1,-2
1443289858090148,2,7,-1,0,-3,-2,-3,-1
1443289858090148,-4,-16,0,-1,-1,-1,0,0
1443289858090993,3,22,0,-4,-1,1,0,-1
1443289858090993,1,11,2,1,-1,0,3,1
1443289858112005,-3,-12,-5,0,-2,-1,-3,-1
1443289858112005,1,8,2,0,0,-2,-2,0
1443289858114007,-1,-7,-3,-3,-1,-1,-1,-1
1443289858114007,0,-5,-2,-3,-1,0,-2,0
1443289858127017,0,-1,-2,-1,0,-1,-1,0
1443289858127017,-9,-11,-3,-2,-1,-2,-1,-1
1443289858130019,11,13,4,0,0,0,0,1
1443289858130019,-1,-11,-6,-7,0,0,-1,1
1443289858150032,0,-5,-2,10,0,1,0,0
1443289858150032,-2,-1,1,2,1,-1,-3,-1
1443289858151033,-2,-4,-2,-1,-2,-2,0,-1
1443289858151033,0,3,0,-2,-1,-1,-2,-1
1443289858172046,2,6,-1,-3,-2,-2,-4,-1
1443289858172046,-3,-4,-4,0,0,2,0,-2
1443289858174047,-4,-5,-2,-1,1,-2,-3,-2
1443289858174047,1,6,2,-2,-1,-1,0,-2
1443289858186057,-3,-9,-1,1,1,1,7,1
1443289858186057,0,3,3,3,-1,0,0,1
1443289858193092,-5,6,-1,-2,-3,-1,-1,-3
1443289858193092,9,7,0,1,-2,-3,-4,-1
1443289858210144,-6,6,-2,-4,-1,-1,-1,-3
1443289858210144,2,-11,-8,-4,-2,0,0,-1
1443289858211072,-4,-4,0,1,0,0,-5,-1
1443289858211072,-2,-14,-3,-2,-3,0,2,0
1443289858232086,0,12,4,-5,-2,-1,-1,-2
1443289858232086,-1,4,0,1,0,1,-1,0
1443289858238092,-5,1,-4,-3,-1,-1,-1,0
1443289858238092,3,1,4,6,0,0,-1,1
1443289858246099,-1,-19,-1,0,-1,-1,-1,1
1443289858246099,3,23,1,-3,-4,-1,-3,-4
1443289858253100,-2,-11,-4,-2,0,0,0,1
1443289858253100,0,9,2,-1,-1,1,0,0
1443289858270111,-6,-27,-5,-2,-3,-1,0,0
1443289858270111,-1,16,5,2,0,-2,-1,-1
1443289858271111,6,15,2,-6,-1,0,0,1
1443289858271111,-11,-20,-4,4,-1,0,1,-3
1443289858292133,6,6,2,-1,0,0,-1,0
1443289858292133,-5,-13,-3,-4,-2,-2,1,-1
1443289858294128,1,-3,0,1,0,0,1,0
1443289858294128,-2,17,0,-3,-1,-2,-5,-4
1443289858306142,1,3,-3,-1,-2,-1,-3,-2
1443289858306142,-5,-10,-4,-3,-3,0,-2,-1
1443289858313143,-1,-7,-2,-2,0,0,3,0
1443289858313143,-3,-12,1,-2,2,2,2,1
1443289858329153,2,14,0,0,0,0,-1,-1
1443289858329153,3,-6,1,-2,1,0,-1,0
1443289858332153,-1,3,-5,2,-2,-3,-4,-2
1443289858332153,-2,15,3,0,-1,-2,-6,-3
1443289858352178,-1,-12,-4,-3,-2,-1,1,0
1443289858352178,-7,-13,-1,-1,0,-1,0,-1
1443289858353167,6,20,1,2,1,-1,-1,0
1443289858353167,-4,-12,-3,-2,-1,-3,-2,0
1443289858366175,4,-6,0,1,1,-1,-1,-2
1443289858366175,2,2,-5,-3,-2,-2,-1,-3
1443289858375181,2,-10,-1,-3,0,0,2,0
1443289858375181,-6,1,-1,1,-1,1,0,0
1443289858389191,1,5,1,1,-1,-2,-1,0
1443289858389191,-2,-3,0,1,0,0,0,0
1443289858391193,-9,-8,-3,-2,-1,-1,0,-1
1443289858391193,11,1,0,-1,-1,-2,-3,1
1443289858412210,-9,-6,-3,-1,0,-1,-1,-1
1443289858412210,4,4,-2,-3,-1,0,0,1
1443289858414207,-3,-4,0,1,-2,0,0,-3
1443289858414207,-6,-14,0,4,0,1,1,2
1443289858426215,2,26,4,-1,-2,-1,-1,0
1443289858426215,0,-11,-2,-2,-1,-2,-5,-1
1443289858433221,7,7,0,-5,-3,-2,-3,1
1443289858433221,-1,-6,-4,-3,-1,-1,2,0
1443289858449231,-2,-6,0,0,0,3,-1,-1
1443289858449231,-3,5,-1,-2,-1,-2,-2,-1
1443289858451232,-7,-6,-1,-2,-2,0,-2,-2
1443289858451232,5,12,2,1,-2,0,-3,-2
1443289858472246,1,-1,-3,-2,-2,-1,4,2
1443289858472246,2,7,1,3,0,-1,1,-2
1443289858474248,-5,-11,1,2,0,-1,-1,-2
1443289858474248,-4,-5,-7,-4,0,-3,-1,-2
1443289858486256,-7,-2,1,1,-1,-2,-5,0
1443289858486256,5,11,1,2,1,2,2,3
1443289858493260,0,6,2,-1,-1,-2,-1,-1
1443289858493260,-6,-16,-3,-2,-2,1,0,0
1443289858510280,2,9,1,1,0,-1,-5,-2
1443289858510280,5,-11,-2,1,0,0,0,0
1443289858511278,-9,12,-1,-1,-1,-1,-1,-3
1443289858511278,6,10,-1,-7,-1,1,-1,-3
1443289858532287,-6,-17,-4,5,1,-1,1,-1
1443289858532287,-4,1,-1,-5,-3,-2,-1,-3
1443289858533287,4,-12,3,4,3,-2,3,1
1443289858533287,2,-10,-4,-1,1,-1,0,0
1443289858546300,3,23,2,-3,0,0,-1,-2
1443289858546300,-11,-7,2,4,2,0,-1,-2
1443289858554301,9,17,1,-4,-2,-2,-4,-2
1443289858554301,-3,3,1,-1,-1,-2,-2,-1
1443289858569324,-4,-15,-3,-3,-1,-2,0,0
1443289858569324,-1,1,-2,-2,-4,-1,-1,-2
1443289858571312,-9,-8,-5,-2,0,1,1,1
1443289858571312,8,-1,4,1,-2,-1,-1,2
1443289858592327,-2,-2,-7,-2,0,-2,-2,-2
1443289858592327,-3,1,3,0,0,-1,-1,0
1443289858593328,4,-8,-1,-3,-1,-1,-1,1
1443289858593328,0,-1,-15,-5,-3,-1,-2,-3
1443289858605336,-6,1,14,0,-2,-1,-1,-1
1443289858605336,-1,15,5,-1,1,-1,-3,-1
1443289858614341,0,-9,-2,6,1,1,0,0
1443289858614341,-1,8,6,4,0,0,-1,-1
1443289858629353,3,-3,17,-6,-3,-3,-1,-1
1443289858629353,-2,-17,-9,0,-1,-1,1,-1
1443289858631352,1,11,6,3,-3,0,0,0
1443289858631352,-10,-14,-7,-1,0,0,2,0
1443289858652377,0,0,-21,-7,0,-2,0,0
1443289858652377,13,20,3,0,-2,-1,-4,-1
1443289858653368,-2,-7,0,-7,0,0,-1,-1
1443289858653368,-4,9,-3,1,-1,-2,0,-2
1443289858665375,-4,-20,0,-1,-2,1,-1,0
1443289858665375,-2,-1,0,0,0,0,1,0
1443289858674383,1,14,-1,-2,-1,-1,-3,-1
1443289858674383,-4,-44,-8,-3,-1,-2,-2,0
1443289858689393,3,65,10,1,-1,0,-1,-1
1443289858689393,8,-7,-6,-2,-2,-1,-2,0
1443289858691394,-4,-12,-7,-1,-1,-2,1,-3
1443289858691394,1,12,4,1,0,-1,-2,-1
1443289858712419,0,-11,4,10,1,1,-1,1
1443289858712419,-4,-10,-6,-5,-2,-1,-1,0
1443289858713410,-7,5,0,-1,-3,-3,-2,-1
1443289858713410,-1,2,-1,-2,1,2,1,-2
1443289858725415,-4,-15,-11,-4,-2,-2,-2,-4
1443289858725415,-7,4,-9,-5,-2,-1,-1,-2
1443289858734422,2,-9,19,3,1,-1,-2,-2
1443289858734422,-10,11,4,0,0,0,-1,0
1443289858749433,17,-26,-8,-5,-3,0,0,1
1443289858749433,1,18,-1,-2,-2,-2,-2,-3
1443289858751438,-3,-2,-6,-8,-3,-1,0,0
1443289858751438,-1,-2,-5,7,-2,-1,-1,-1
1443289858772449,-1,-7,14,1,2,3,1,0
1443289858772449,-4,-24,-7,0,-2,-1,0,0
1443289858773448,-1,9,-3,0,-2,-2,-3,-2
1443289858773448,2,3,5,-5,-2,-3,-3,-2
1443289858794462,-1,-5,-16,-1,1,1,0,1
1443289858794462,4,1,7,1,-1,-1,0,0
1443289858796463,-9,-8,-8,-3,-2,0,-1,0
1443289858796463,6,6,4,-2,-2,-1,-2,-1
1443289858809472,-6,12,-1,-2,0,-1,-1,-3
1443289858809472,-7,-2,0,-1,0,1,-1,-2
1443289858811474,2,-13,-3,0,1,1,0,1
1443289858811474,5,-4,2,-3,-1,-1,-1,0
1443289858832487,0,9,-2,0,-2,-1,0,-1
1443289858832487,0,-7,4,5,0,0,-1,0
1443289858833488,-10,1,0,-1,-2,-2,-3,-3
1443289858833488,7,6,4,2,0,-2,-1,2
1443289858845497,-5,-19,-7,-10,-2,-2,-1,-3
1443289858845497,-4,-1,0,1,-1,-1,-2,-3
1443289858855502,-3,-1,0,4,1,1,-1,1
1443289858855502,-5,-6,2,-2,1,2,5,1
1443289858869511,-2,16,-5,2,-1,-1,1,-1
1443289858869511,1,-2,7,-3,0,0,-1,0
1443289858871514,2,-5,-6,-2,0,0,-3,-2
1443289858871514,2,7,1,1,-1,-2,-3,-1
1443289858892528,-2,-4,0,-1,-1,-2,-1,1
1443289858892528,-3,-4,-7,-5,-3,-2,-3,-2
1443289858893528,-1,-16,9,7,0,1,1,1
1443289858893528,8,25,0,-1,0,0,0,-1
1443289858905555,-6,-14,0,3,-1,-1,0,-2
1443289858905555,-4,17,0,-5,-2,-2,-1,-1
1443289858922547,11,-4,-2,-4,-4,-2,-2,-1
1443289858922547,-4,9,-4,-2,-1,-2,-2,-2
1443289858929551,1,-8,-7,-4,-2,-1,0,1
1443289858929551,-2,20,24,4,3,1,2,1
1443289858931552,0,-9,-17,3,1,-2,0,-1
1443289858931552,-10,-5,12,0,0,0,-1,-2
1443289858952571,-2,-4,-1,2,0,-1,-3,-4
1443289858952571,6,4,-11,-7,-2,-1,-1,1
1443289858953570,5,-1,5,-2,-1,1,-1,-2
1443289858953570,-7,-12,-10,-2,-1,0,-2,-1
1443289858974584,1,8,6,2,1,1,-1,1
1443289858974584,-7,-15,-6,-1,-2,0,1,-2
1443289858976583,3,0,-5,-2,-1,0,-1,-1
1443289858976583,6,3,-8,-4,0,-1,0,0
1443289858989592,-4,12,5,2,-1,-1,-1,-1
1443289858989592,4,-4,-6,-5,-3,-3,-1,-2
1443289858991592,1,6,0,3,-1,0,0,3
1443289858991592,-6,-5,-2,-5,-3,-1,-2,-4
1443289859012763,2,-2,-1,2,-2,-2,-2,0
1443289859012763,3,0,3,1,2,-2,-2,1
1443289859013607,-6,-1,-5,-5,-1,-1,0,-2
1443289859013607,-2,2,-1,3,2,0,-3,1
1443289859034622,7,6,-3,-4,-2,-1,-1,0
1443289859034622,-10,-10,2,3,-1,0,-1,-1
1443289859036623,-3,-15,-8,-7,-3,-1,0,0
1443289859036623,6,6,6,7,2,1,0,0
1443289859050631,-4,2,-3,-2,0,-1,-2,-1
1443289859050631,-9,-12,-2,-1,0,0,0,-1
1443289859051633,2,1,1,-1,0,-2,-2,-1
1443289859051633,-1,7,0,1,-2,-1,0,-2
1443289859072652,-4,-13,-7,-5,-3,-1,0,1
1443289859072652,8,23,7,2,2,0,-2,0
1443289859074650,-5,7,2,2,0,1,-1,-3
1443289859074650,4,-1,-5,-2,-2,-2,-2,-1
1443289859094670,-5,-9,-1,-3,-1,0,-1,-2
1443289859094670,1,-6,-13,-2,-1,-1,-2,-1
1443289859096663,1,2,22,-3,0,1,0,0
1443289859096663,-3,5,3,8,-1,-2,-2,-3
1443289859108673,-3,1,1,-4,0,-2,1,-2
1443289859108673,-1,-16,-4,-2,-2,-2,-2,-1
1443289859115678,-1,-4,-8,-6,-4,-1,0,0
1443289859115678,16,31,4,0,2,0,1,1
1443289859131685,-10,1,5,-3,-2,-4,-2,-5
1443289859131685,-8,-7,-6,-3,0,0,-2,-1
1443289859133689,6,-1,8,10,3,-1,-1,0
1443289859133689,4,-13,-7,-9,-3,1,-1,4
1443289859154702,5,0,12,9,0,1,-2,3
1443289859154702,-1,-5,-1,-4,-2,0,-2,-3
1443289859156703,-1,22,-10,-6,-2,-1,1,0
1443289859156703,-11,-9,9,-1,0,-2,1,-1
1443289859168711,8,10,-8,-1,0,-1,1,-1
1443289859168711,-8,-21,0,1,-1,-1,2,2
1443289859175718,2,10,-2,0,0,-2,-2,-1
1443289859175718,-4,-12,-7,-3,-3,0,1,-3
1443289859191726,-1,6,8,-1,0,-1,0,-1
1443289859191726,4,1,2,-3,-1,0,-2,1
1443289859193728,-4,-3,-1,5,1,0,1,-1
1443289859193728,-8,-7,-9,-8,-4,-1,-1,-1
1443289859214748,12,-11,3,1,-1,0,0,2
1443289859214748,-5,-31,-3,4,0,0,0,-1
1443289859216750,3,59,4,-3,-2,-3,-1,-1
1443289859216750,-3,-21,-5,-2,0,-1,-2,-2
1443289859229759,-9,-17,-12,1,1,1,-1,0
1443289859229759,13,23,2,5,1,-2,1,0
1443289859237757,-3,-12,1,-5,-3,-1,-1,-1
1443289859237757,-2,-15,-4,1,0,0,0,-2
1443289859251766,0,16,3,-7,-3,-2,-1,-2
1443289859251766,-9,0,-1,-2,0,0,1,0
1443289859253768,12,-5,-3,5,-1,-1,-2,2
1443289859253768,-11,0,-5,-3,-1,-2,-1,-4
1443289859274782,-3,-9,-5,1,0,1,0,0
1443289859274782,3,14,0,-1,0,-3,-3,-3
1443289859276784,-2,-10,1,0,1,0,-2,0
1443289859276784,1,-33,-8,-7,-1,0,-1,3
1443289859287790,10,51,15,9,1,-3,-3,-1
1443289859287790,-8,-3,-1,-4,-2,-1,-2,-2
1443289859296798,-5,-8,-9,-1,0,0,2,-1
1443289859296798,12,1,9,5,0,1,0,1
1443289859311808,-2,-11,1,-1,-1,1,-2,-1
1443289859311808,-1,-3,2,4,-1,-1,0,-1
1443289859313807,-7,-1,-6,-9,-4,-3,-3,-1
1443289859313807,-7,0,-16,3,0,-2,-1,-3
1443289859334823,1,-7,-14,-8,-2,-1,-1,1
1443289859334823,10,12,6,5,1,1,0,0
1443289859335822,-5,-12,14,0,1,0,0,-2
1443289859335822,0,18,0,2,-1,-1,-1,1
1443289859348831,4,1,-3,-2,-2,-2,-2,-2
1443289859348831,5,3,-17,-8,-3,-2,-1,-1
1443289859356836,-12,-17,-10,-3,-3,-2,-2,-2
1443289859356836,8,12,28,5,1,0,-1,0
1443289859370846,-10,-15,-3,0,-1,0,-1,-2
1443289859370846,11,14,-1,-2,0,0,0,1
1443289859379851,-8,-12,-3,-2,-1,-1,1,-2
1443289859379851,-7,8,3,-1,0,-1,-1,-1
1443289859401868,0,-4,2,1,1,-1,0,-1
1443289859401868,0,-1,10,6,-1,-3,-1,-2
1443289859403867,6,2,-20,-3,-2,-2,-1,1
1443289859403867,-1,-3,13,-1,-1,0,-1,0
1443289859407871,-16,-3,-1,1,-1,1,-1,-2
1443289859407871,-1,-7,-8,-7,-1,0,0,-1
1443289859424884,0,-1,9,9,2,0,0,1
1443289859424884,11,35,-10,-13,-4,-3,-2,-2
1443289859431888,-2,-19,-2,6,2,0,0,0
1443289859431888,-4,5,-9,-1,0,1,0,2
1443289859433888,-6,1,1,0,0,-2,-1,-5
1443289859433888,-8,-16,-11,-5,-3,-3,-3,-5
1443289859454901,1,1,-1,-6,-3,-3,-1,1
1443289859454901,-1,-3,6,1,0,-1,0,-2
1443289859455903,0,-6,2,3,0,-1,-1,0
1443289859455903,7,-5,-9,-3,0,-2,-1,2
1443289859467912,-8,0,-2,-5,-3,0,-1,-1
1443289859467912,-3,8,-1,1,-2,-1,-1,-2
1443289859476924,3,8,7,-1,-1,1,-3,2
1443289859476924,-3,-36,-12,-3,-1,0,-1,-1
1443289859492929,6,26,22,5,3,-1,-2,3
1443289859492929,-2,-1,-7,4,0,-1,-2,0
1443289859493929,5,-4,6,-2,-2,1,0,0
1443289859493929,-3,-12,-2,-3,-4,-2,-2,-1
1443289859514943,3,6,-6,-8,-3,0,-1,-1
1443289859514943,-8,-13,-6,-1,0,4,0,4
1443289859515943,2,7,-8,-1,-1,-3,-3,-3
1443289859515943,-3,3,12,4,0,-1,0,-2
1443289859527955,4,-4,-11,0,0,-1,1,-1
1443289859527955,-10,-23,19,0,-1,1,0,-2
1443289859544962,-5,8,-17,-4,-4,-4,-3,-4
1443289859544962,0,-5,0,0,0,2,1,3
1443289859551967,1,4,-16,-7,-2,-2,-1,0
1443289859551967,5,-2,0,5,2,-1,0,0
1443289859553967,6,-2,-2,-1,0,1,1,1
1443289859553967,-15,-1,3,1,-1,-1,-2,-6
1443289859574982,4,-14,-11,-8,-4,-3,-2,-1
1443289859574982,-5,8,11,-5,-3,-2,-1,-3
1443289859576984,9,10,8,-3,-2,-3,-1,1
1443289859576984,-1,7,-19,-1,0,-2,-1,-2
1443289859588995,-7,-16,9,5,1,0,1,1
1443289859588995,0,8,2,-1,-3,-2,-1,-1
1443289859596997,-2,-9,-3,0,0,0,-1,0
1443289859596997,-6,6,6,-1,-1,0,0,1
1443289859612007,1,-6,-6,3,-1,-2,-1,-4
1443289859612007,-1,-5,-11,-5,0,-1,1,0
1443289859614009,-1,-17,-7,-3,-2,-2,0,-2
1443289859614009,9,31,12,1,0,0,-1,1
1443289859635025,-6,-9,0,0,-2,0,-2,-4
1443289859635025,5,-1,-4,-1,-1,-2,-1,0
1443289859636024,-20,-13,-8,-3,-2,0,-2,-2
1443289859636024,3,-3,-10,-1,-1,0,1,0
1443289859648031,9,11,16,4,1,-1,0,0
1443289859648031,-1,-4,-10,-2,-1,0,-1,-2
1443289859657037,1,5,29,5,0,0,0,1
1443289859657037,1,-14,-11,-4,-1,-2,-1,2
1443289859672054,-6,10,4,0,0,-1,-1,-1
1443289859672054,5,-24,0,0,-1,0,-1,0
1443289859674047,0,38,10,-5,0,-3,-1,0
1443289859674047,1,2,-2,6,0,0,1,0
1443289859695066,-3,-2,1,1,0,-1,-2,1
1443289859695066,2,8,-1,-4,-3,-2,0,-1
1443289859696062,1,-12,-11,-4,-1,-2,-1,-2
1443289859696062,-3,6,18,2,-1,-2,-2,-2
1443289859708070,1,-5,-21,-3,0,0,-1,2
1443289859708070,-7,-5,15,0,-1,-1,-1,-4
1443289859717082,3,2,-8,-2,1,3,1,0
1443289859717082,2,-2,-2,6,0,-1,-1,-1
1443289859732095,-6,-10,-7,-3,-3,-2,-1,-1
1443289859732095,-2,-2,14,-3,-2,-1,-1,0
1443289859734090,2,2,4,1,1,1,-1,0
1443289859734090,2,-8,4,3,1,2,0,1
1443289859755103,0,8,6,-3,-3,-2,-1,1
1443289859755103,-1,3,-12,-3,-1,-2,-1,-1
1443289859756102,-5,4,2,5,1,0,2,0
1443289859756102,7,6,-1,-7,-3,-2,0,1
1443289859768117,4,7,3,2,3,0,0,0
1443289859768117,0,1,-10,-1,0,-1,0,0
1443289859777118,-2,-10,-5,2,-2,-2,-1,0
1443289859777118,-9,-14,-13,-5,-2,-1,0,-2
1443289859792133,-6,-7,-10,-5,-3,-2,0,-2
1443289859792133,8,12,20,6,0,0,-1,0
1443289859794131,0,-9,-12,-5,-2,-1,-2,0
1443289859794131,-8,-2,11,12,4,0,0,1
1443289859815142,8,5,0,-1,-1,-2,-2,-2
1443289859815142,-4,-12,-21,-5,-2,0,-1,1
1443289859816143,6,16,9,-2,0,0,0,-1
1443289859816143,-5,6,-3,-3,2,1,1,-1
1443289859828159,-3,-19,-1,-2,-3,1,1,-1
1443289859828159,7,10,-11,-2,-4,-3,-4,-2
1443289859845162,-1,-6,-6,-2,-1,-2,1,1
1443289859845162,-5,-9,-5,-7,-2,0,-1,-3
1443289859851168,-3,-7,8,4,1,1,0,-2
1443289859851168,3,8,-6,-7,-4,-2,-1,-1
1443289859858171,-5,-11,0,8,2,2,2,-1
1443289859858171,-3,-11,-13,-3,-3,0,-3,-2
1443289859875185,-3,13,-1,-5,-1,-2,-1,0
1443289859875185,8,1,-2,3,1,0,1,1
1443289859876186,-7,-5,9,1,0,-1,-1,-2
1443289859876186,6,-31,-20,-3,0,-1,0,-1
1443289859897205,-2,28,5,0,-2,-1,-2,0
1443289859897205,-8,9,10,1,-1,-2,-2,-2
1443289859899202,4,6,6,-4,-2,0,0,1
1443289859899202,-5,0,6,1,-1,0,-1,2
1443289859911206,-6,-32,-17,-8,-2,-1,-1,2
1443289859911206,4,25,20,7,1,0,0,0
1443289859918218,6,-5,-9,3,-1,-1,-3,-1
1443289859918218,0,9,13,-1,-2,-3,-1,-1
1443289859934223,-2,-3,-7,-6,-2,-3,1,-2
1443289859934223,-8,-14,-4,4,3,2,1,0
1443289859936223,-2,-23,-16,-3,-1,-1,-1,0
1443289859936223,6,30,7,-1,-3,-4,-3,-4
1443289859957240,1,1,0,-2,0,0,1,0
1443289859957240,-5,-13,-18,-6,-3,-1,-1,-2
1443289859959239,0,-5,9,-1,1,2,-3,-1
1443289859959239,-3,1,-3,0,1,0,0,1
1443289859971248,1,-9,-3,-1,-3,-1,-1,-1
1443289859971248,-5,-6,1,-6,-4,-1,-1,-2
1443289859978252,10,16,3,-6,-1,-1,0,0
1443289859978252,-5,-7,-3,8,1,0,-1,-1
1443289859995272,4,-13,9,3,1,1,0,-1
1443289859995272,-8,13,-6,1,0,-1,-2,-3
1443289859996265,0,1,-5,-8,-3,-3,-1,0
1443289859996265,2,-9,-2,-8,-3,0,1,-1
1443289860017278,3,19,-2,8,2,0,-1,0
1443289860017278,-3,-13,-1,1,-1,1,0,-1
1443289860018280,0,11,2,-2,-3,-3,-2,-2
1443289860018280,-1,-5,6,-1,-1,-2,-2,0
1443289860032289,5,20,-8,-1,-2,-1,0,-1
1443289860032289,-5,2,1,-6,-3,-3,-3,-3
1443289860033288,-4,-9,-3,10,3,2,1,0
1443289860033288,0,1,-2,2,0,1,0,0
1443289860054302,-5,-6,-2,-2,-1,0,-3,-1
1443289860054302,2,-2,2,-2,1,0,0,2
1443289860056303,-10,-16,9,4,0,-2,1,0
1443289860056303,7,25,-1,-6,-2,-3,-2,-2
1443289860077317,-6,-6,-2,4,0,1,0,0
1443289860077317,21,-3,-6,1,0,1,1,2
1443289860078319,-14,-5,-7,-2,-1,0,-2,-2
1443289860078319,4,16,-2,-5,-1,-1,-2,-4
1443289860091327,-9,-17,8,1,1,-2,-2,0
1443289860091327,6,16,15,-1,-1,-1,-1,1
1443289860098334,-7,-22,-7,0,-1,-1,2,0
1443289860098334,2,13,4,-1,-2,0,2,-1
1443289860114341,-1,-15,-6,-9,-4,-3,1,-3
1443289860114341,-7,-5,-6,5,1,1,0,-1
1443289860116343,6,13,-4,-4,-3,-1,-2,-1
1443289860116343,-7,-9,-1,3,1,1,0,1
1443289860137363,2,-7,-11,-8,-4,-1,-1,-1
1443289860137363,-10,1,16,-3,1,0,-2,-3
1443289860140479,-4,24,0,6,0,2,-1,0
1443289860140479,-2,-18,-5,-5,-2,-3,0,-1
1443289860152485,7,8,-1,1,1,-1,-1,-3
1443289860152485,-2,-4,-8,-2,-2,-1,0,0
1443289860158494,-4,-7,-3,-2,-3,0,-3,-2
1443289860158494,3,-3,8,1,-2,1,-3,0
1443289860174498,1,9,10,2,0,0,0,2
1443289860174498,0,-22,-7,-3,-2,-3,-2,-1
1443289860176498,-6,11,-25,-7,-2,-2,-2,-2
1443289860176498,0,-1,9,1,-2,-1,-2,1
1443289860197517,-6,-10,-4,1,-3,0,-2,-2
1443289860197517,-3,-20,-1,0,-1,-1,0,0
1443289860198513,5,31,11,3,-1,-2,0,-1
1443289860198513,0,-5,-11,-4,-1,-1,-1,-3
1443289860211526,-2,0,11,2,1,-1,-2,1
1443289860211526,-1,6,-7,6,0,0,-1,1
1443289860218527,4,-7,1,-2,-1,0,-1,-1
1443289860218527,-13,-10,-13,-2,0,1,0,-3
1443289860234538,3,-4,26,3,1,0,-1,-2
1443289860234538,0,25,-29,-9,-5,-2,-2,-2
1443289860236539,1,-14,34,7,4,0,0,0
1443289860236539,2,6,-3,0,1,-1,0,0
1443289860257558,-5,2,-14,-1,-2,-2,-1,-2
1443289860257558,-1,-2,-8,-2,-2,-2,-1,-4
1443289860258553,-5,-7,-3,-6,-3,-1,-1,0
1443289860258553,-8,-10,-6,-8,-3,-1,0,1
1443289860271562,14,-3,7,12,4,2,3,3
1443289860271562,-3,0,3,-3,-1,-2,0,-2
1443289860278567,8,11,-10,-6,-3,-1,-2,-2
1443289860278567,-3,-12,4,5,0,0,0,1
1443289860294582,-7,-18,-9,-3,-1,-3,-1,0
1443289860294582,-9,30,3,0,-1,-1,0,-2
1443289860296579,11,-4,-19,-4,-2,0,-1,0
1443289860296579,1,-1,4,1,-2,0,0,-1
1443289860317593,-7,5,3,0,0,2,-1,-3
1443289860317593,17,-2,5,2,2,1,1,3
1443289860318595,-17,-14,-7,-5,-4,-2,-3,-3
1443289860318595,3,10,2,-3,-1,-2,0,2
1443289860331604,-3,1,-1,1,-1,1,-1,-2
1443289860331604,-10,-20,7,-2,-1,0,-1,-2
1443289860338607,10,-1,2,2,1,2,-1,0
1443289860338607,7,18,-2,2,1,-1,0,1
1443289860354621,-8,-2,-14,-5,-1,-2,-3,-2
1443289860354621,8,-19,12,8,2,-1,0,0
1443289860356618,-1,23,13,1,-2,0,-1,-1
1443289860356618,-7,-14,-5,-1,0,-1,0,-1
1443289860377637,9,11,-3,-3,0,-1,0,0
1443289860377637,-7,-4,-3,-5,-2,-3,-3,-3
1443289860378635,-1,-19,-9,2,-1,-1,0,0
1443289860378635,1,9,0,2,-1,0,1,1
1443289860391642,2,9,9,-2,-3,-2,-2,-2
1443289860391642,4,-5,-5,-4,-2,-1,-2,-2
1443289860398652,-6,-18,4,0,0,0,0,0
1443289860398652,-6,5,-2,-3,-1,-2,-3,-2
1443289860414661,-1,-2,-1,-5,0,-1,2,1
1443289860414661,-1,-2,13,2,-1,0,1,1
1443289860416658,3,9,0,3,2,-1,-1,-1
1443289860416658,3,-3,0,-2,-2,0,-2,-1
1443289860437673,-8,-14,-13,-7,-3,-2,-2,0
1443289860437673,-3,7,13,4,0,1,0,1
1443289860438673,1,-1,-1,0,1,-1,0,0
1443289860438673,-4,-3,0,0,-1,-1,-2,-5
1443289860450683,-2,-19,-9,-2,-1,-1,-1,-1
1443289860450683,1,20,-12,-6,-2,-2,-3,-2
1443289860459688,0,-1,18,7,1,-1,0,0
1443289860459688,2,-4,8,-1,-2,0,0,-1
1443289860474698,4,9,-1,1,-1,1,1,-1
1443289860474698,-8,-18,-16,-2,0,0,-2,0
1443289860476698,0,-2,-2,-3,-2,-2,-3,-2
1443289860476698,-2,-5,-3,-2,0,1,-1,-1
1443289860497733,-1,0,3,-3,-1,-2,-2,-1
1443289860497733,-5,-8,-2,0,0,-1,0,0
1443289860498715,0,-12,-14,-4,-1,-3,-1,2
1443289860498715,6,13,11,3,-1,0,0,1
1443289860510729,-4,6,0,4,0,1,-1,0
1443289860510729,3,10,-3,-2,-1,0,-2,-1
1443289860519728,-4,-18,7,3,-1,-1,0,1
1443289860519728,-8,-17,4,-2,-3,-2,-1,-4
1443289860534739,4,22,13,-4,-3,-1,0,0
1443289860534739,-1,-9,3,4,4,0,0,0
1443289860536740,2,6,-12,-8,-1,1,0,1
1443289860536740,-2,-25,-4,5,1,0,0,1
1443289860557762,3,13,1,-2,-4,-2,-1,1
1443289860557762,-1,12,-2,-1,-1,0,-2,-3
1443289860558755,-4,5,-16,-8,-3,0,-1,-2
1443289860558755,-5,-1,6,3,0,-1,-1,-2
1443289860570762,-1,-14,6,1,0,0,0,1
1443289860570762,11,17,-1,-6,-2,-1,-1,0
1443289860579768,-6,-1,-4,3,1,0,0,0
1443289860579768,0,6,-14,-6,-1,-2,-2,-4
1443289860595778,-6,-8,15,8,2,0,1,-2
1443289860595778,2,-3,2,-1,-3,-2,-2,0
1443289860596781,-4,3,11,7,-1,-2,-1,-3
1443289860596781,1,3,1,-4,-1,0,0,-1
1443289860616792,-1,-4,-8,1,0,0,-2,-2
1443289860616792,-4,-3,-10,-3,0,0,-2,-3
1443289860618794,-1,-12,-7,-9,-3,-2,-1,0
1443289860618794,0,31,13,11,4,1,0,1
1443289860630802,-4,2,-9,-5,-2,-3,-1,-1
1443289860630802,4,-53,-2,1,0,0,2,0
1443289860639807,9,51,-6,-4,-1,-3,-3,-2
1443289860639807,-9,-18,9,3,1,-1,0,-2
1443289860654824,6,11,-14,-6,-5,-2,-2,-2
1443289860654824,-8,-8,-4,-1,-1,0,0,0
1443289860656820,-3,-15,-14,-4,-2,0,0,-2
1443289860656820,8,11,0,0,-3,-1,0,0
1443289860676833,-2,-4,-9,-3,0,0,0,1
1443289860676833,-6,-1,1,5,-1,-2,-1,1
1443289860678834,1,-1,9,3,1,1,0,0
1443289860678834,0,-2,-1,-5,-3,1,0,1
1443289860690843,0,-3,-9,2,1,1,-1,-1
1443289860690843,2,17,-5,-8,-2,-2,-2,-1
1443289860699850,-5,-2,6,3,-1,-1,0,-1
1443289860699850,1,-12,-6,0,1,-2,-1,0
1443289860714862,1,1,3,-2,0,-1,-3,-5
1443289860714862,-1,5,-1,0,-1,0,1,1
1443289860715859,-4,-6,3,1,1,1,0,-2
1443289860715859,3,0,-15,-11,-5,-4,-1,0
1443289860736874,8,1,11,6,0,0,1,1
1443289860736874,-4,11,-8,1,0,0,0,-1
1443289860738873,0,-15,-8,-5,-5,-2,-1,-1
1443289860738873,-3,-6,0,1,0,0,-2,-1
1443289860750881,-4,-1,9,-1,1,0,2,-1
1443289860750881,2,6,14,2,-1,-1,-2,-1
1443289860759887,-3,-6,-2,-2,0,-1,-1,-1
1443289860759887,-7,-15,-13,-1,0,-2,-1,-1
1443289860774902,4,22,-12,-3,-2,-3,-2,-2
1443289860774902,-8,-8,9,0,-1,-1,0,-2
1443289860775899,6,1,-3,1,-1,-2,0,-1
1443289860775899,1,3,-9,-2,-1,-1,-1,-1
1443289860796914,-6,-16,-2,-1,0,0,-1,1
1443289860796914,-3,-2,-4,-7,-3,1,0,0
1443289860798916,5,2,-8,6,3,1,0,0
1443289860798916,-9,2,2,3,0,0,1,-3
1443289860810930,4,11,26,4,-2,0,1,0
1443289860810930,-10,-48,-9,1,1,0,0,0
1443289860819928,11,69,12,-4,-3,-1,-2,-1
1443289860819928,6,-2,-6,-3,-3,-2,-1,1
1443289860834939,-12,-15,3,0,0,0,-2,-1
1443289860834939,-1,1,4,3,0,0,1,-2
1443289860835940,-2,-18,8,-3,-2,-1,0,-1
1443289860835940,-4,0,-4,-2,0,-2,-1,0
1443289860856959,1,7,5,-1,-2,0,-2,-4
1443289860856959,-3,-2,-4,-1,-1,-1,-1,0
1443289860858954,-3,-11,6,-3,1,0,-1,-1
1443289860858954,2,20,7,-1,-1,1,-1,-1
1443289860878971,-5,-17,-20,-4,-2,0,-1,1
1443289860878971,-2,11,9,-5,-1,-3,-3,-3
1443289860886973,-1,-1,0,-1,-2,-1,-1,-1
1443289860886973,-6,-23,2,0,0,1,1,-1
1443289860894978,5,33,-8,-4,-1,-2,-1,-1
1443289860894978,1,3,-11,-4,-2,-1,-1,-1
1443289860895979,-5,-5,3,0,-1,1,-2,0
1443289860895979,-1,1,8,0,-1,-1,-3,-1
1443289860916993,-3,-21,-8,-4,-3,-1,-1,-2
1443289860916993,6,15,-3,5,0,-1,-1,3
1443289860918996,1,-7,-3,-7,-4,-4,-1,-4
1443289860918996,-11,-23,-8,2,1,-1,-1,0
1443289860940008,0,0,2,-1,1,-1,1,1
1443289860940008,0,1,-7,-3,-2,-2,-2,-4
1443289860941008,-2,-2,6,4,1,1,-1,0
1443289860941008,0,1,6,0,-2,-2,1,0
1443289860955019,-2,5,-18,-4,-1,0,-2,1
1443289860955019,5,-10,2,-3,-2,-1,-3,-2
1443289860956021,-2,3,-8,0,0,0,0,-1
1443289860956021,3,10,5,-2,0,0,-2,-1
1443289860977040,2,-5,8,6,-1,-2,-2,0
1443289860977040,-1,8,2,-1,1,1,2,0
1443289860979037,3,7,-8,-3,-1,-3,-3,-2
1443289860979037,1,4,23,1,0,1,-1,0
1443289861000048,-5,-12,0,1,0,-1,1,-2
1443289861000048,3,4,4,1,-3,-2,-2,-2
1443289861002050,-4,-1,-5,-3,0,2,0,1
1443289861002050,-1,0,-15,-10,-4,-3,-4,-4
1443289861014058,0,7,21,6,1,0,0,-1
1443289861014058,-7,-4,10,4,1,1,0,1
1443289861021062,5,-1,-6,-2,-2,-1,0,1
1443289861021062,5,-7,-12,-3,1,0,-1,0
1443289861037074,-4,-8,-2,2,0,1,0,-1
1443289861037074,2,0,-2,-2,-3,-1,-2,0
1443289861039075,-12,4,-5,-3,-2,0,0,-3
1443289861039075,2,4,-14,2,-1,0,-1,-1
1443289861060250,0,-13,-2,-3,0,-1,2,1
1443289861060250,6,31,2,-3,0,-2,-3,-1
1443289861061090,-2,-17,4,-2,-2,-3,-1,0
1443289861061090,-2,-7,5,1,0,1,-2,0
1443289861074097,4,14,-11,4,2,1,0,0
1443289861074097,-5,-11,10,1,1,1,0,-1
1443289861081104,0,5,-1,-2,-1,-2,-1,0
1443289861081104,3,9,-2,2,-2,-2,-1,0
1443289861097121,-2,-12,-11,-5,-1,-2,-1,-1
1443289861097121,-5,4,22,1,0,-2,-2,-1
1443289861099126,3,-3,-10,6,1,0,-1,-1
1443289861099126,-3,3,-2,-3,-1,0,1,1
1443289861120129,-5,-29,1,1,-2,0,-2,-4
1443289861120129,12,30,0,5,0,0,1,-1
1443289861121130,-11,-20,2,-2,1,-1,-1,-3
1443289861121130,1,13,-2,-2,-1,-2,-2,-3
1443289861134137,2,-2,7,3,1,-1,0,0
1443289861134137,-2,-26,-15,-4,-1,-1,-1,2
1443289861141143,-3,19,29,6,1,2,2,0
1443289861141143,0,-2,-8,-2,-3,-2,-2,-3
1443289861157156,2,10,-1,-1,-1,-1,-1,-1
1443289861157156,-4,-10,-20,-8,-4,-1,-1,-1
1443289861159156,5,-10,-3,-1,0,-1,1,1
1443289861159156,-1,0,9,0,1,-1,0,2
1443289861187176,-8,19,3,-1,0,0,-1,-3
1443289861187176,0,-1,-4,1,0,-1,-2,0
1443289861189174,-1,-11,-5,-4,-3,-2,-2,-2
1443289861189174,-1,22,-7,-2,-1,1,-1,-1
1443289861194178,7,-5,-1,-2,0,-1,0,1
1443289861194178,-3,-12,-14,0,-1,-2,-1,-2
1443289861201191,-4,-8,6,-2,-2,0,-2,0
1443289861201191,-5,-9,-6,-3,-1,-1,3,1
1443289861217192,5,7,2,-7,-3,-3,-4,-1
1443289861217192,4,3,13,4,2,2,1,0
1443289861220196,0,1,-5,5,-1,0,-1,0
1443289861220196,0,-9,-5,-3,-1,-1,-1,0
1443289861240209,-9,-2,1,-4,-2,0,-1,-1
1443289861240209,-2,-8,-6,-2,-2,-2,-1,-1
1443289861241209,1,2,-6,-3,-1,-2,0,0
1443289861241209,-1,2,7,2,1,0,0,0
1443289861254217,1,3,-12,-9,-2,-2,-2,-1
1443289861254217,-3,-18,-6,0,-2,-1,-1,0
1443289861261224,-1,14,-3,3,-1,0,0,-1
1443289861261224,3,-14,-1,-3,-3,-3,-2,-2
1443289861277241,0,0,-12,-4,-1,-2,-1,0
1443289861277241,-2,4,12,0,-1,0,-1,-3
1443289861279235,-6,-10,2,-4,0,-2,-1,0
1443289861279235,-4,-12,-4,4,1,1,0,-1
1443289861300384,12,16,0,2,-1,-1,0,1
1443289861300384,-9,-20,1,-2,-1,0,-1,0
1443289861301252,5,17,1,0,0,-1,-1,0
1443289861301252,-8,-6,-15,-4,-1,-1,-1,-1
1443289861314259,-5,-14,7,6,-1,1,-1,0
1443289861314259,0,19,-7,-4,-2,-1,0,-1
1443289861321268,4,5,9,-2,0,-2,-1,-1
1443289861321268,-2,-6,0,-1,-1,-4,1,-1
1443289861337275,-3,-3,2,0,0,0,-1,-2
1443289861337275,-2,-5,-13,-2,-2,0,1,-1
1443289861339274,1,-11,-14,-3,-2,0,-1,0
1443289861339274,2,14,7,3,0,0,-1,-1
1443289861360291,1,-18,6,3,0,-2,1,0
1443289861360291,-2,5,-2,-3,-1,-2,-2,-3
1443289861361292,4,-1,-5,-3,-1,-1,-2,-2
1443289861361292,4,0,-13,-2,-2,-1,-1,-1
1443289861373297,-3,-2,8,0,0,0,0,-2
1443289861373297,-2,-5,2,1,-3,1,-1,-1
1443289861382303,-5,-3,-3,0,-2,-2,-2,-1
1443289861382303,8,13,4,0,-2,-1,-1,-2
1443289861397313,-5,-5,-1,-4,-1,-1,0,-2
1443289861397313,1,5,8,4,2,-2,-1,0
1443289861399313,-5,-9,-4,-2,-1,0,-1,-2
1443289861399313,3,-1,6,0,1,-1,-2,-1
1443289861419329,-5,-6,-17,-7,-2,-2,-1,0
1443289861419329,-3,4,-1,5,2,0,1,-1
1443289861421329,6,-6,16,3,0,-2,-1,-3
1443289861421329,-11,0,11,7,1,1,-1,-2
1443289861442342,8,7,-9,-2,0,-1,-3,0
1443289861442342,0,-12,-7,-4,-2,-2,-2,1
1443289861444346,0,2,-15,-2,-3,-2,-2,0
1443289861444346,-4,22,6,-4,-3,-2,-2,-3
1443289861457355,2,5,10,3,-1,-2,1,-1
1443289861457355,0,-7,0,-1,-1,-1,0,1
1443289861458355,-5,-1,3,-3,-1,0,-2,-1
1443289861458355,3,-3,3,0,1,1,1,1
1443289861480375,-5,-8,-11,1,-1,-1,1,-1
1443289861480375,3,19,7,2,0,-1,0,-1
1443289861481370,-2,-5,-9,-3,-1,0,-1,-1
1443289861481370,2,-6,-1,-4,-2,-3,-2,1
1443289861493380,-3,-7,-3,4,0,-1,-2,-3
1443289861493380,0,4,-1,-3,-1,-1,-1,-1
1443289861502383,-3,-5,2,1,0,-1,0,0
1443289861502383,-2,-9,5,4,0,0,0,0
1443289861517392,2,9,-3,-3,-1,0,-1,0
1443289861517392,0,2,-3,-4,-3,-1,-2,-2
1443289861519396,-3,-3,6,1,1,-1,1,-1
1443289861519396,-10,-15,-8,-6,-1,-2,1,-3
1443289861539408,11,21,-3,-2,-2,-1,-2,-1
1443289861539408,-5,-27,-1,-2,-1,-1,-2,-1
1443289861541410,4,19,-8,0,0,0,0,1
1443289861541410,2,-1,11,-2,-2,-1,0,-2
1443289861553419,-5,-3,-5,-3,-1,0,-1,-3
1443289861553419,-1,-3,-4,3,2,0,-1,-1
1443289861562423,1,-11,0,-3,-2,-1,0,-1
1443289861562423,-3,6,5,1,1,2,0,2
1443289861577443,-5,-2,10,-3,-1,1,-1,-1
1443289861577443,3,-2,0,4,0,0,1,0
1443289861578438,-2,5,0,-4,-4,-2,-3,-3
1443289861578438,4,5,-15,-3,-2,-2,-2,-2
1443289861599448,2,-7,24,6,0,-1,-1,1
1443289861599448,-12,-20,-10,-1,-1,0,1,-1
1443289861601450,5,17,14,4,0,0,-1,-2
1443289861601450,6,-2,-11,-4,-3,-3,-1,1
1443289861613457,-3,-4,-4,-2,-2,0,-2,-1
1443289861613457,1,10,-2,1,0,-2,0,0
1443289861622463,-3,-7,8,1,1,0,0,0
1443289861622463,-1,-9,0,-2,0,1,-1,-1
1443289861637474,-17,-2,-7,-3,0,-1,1,-2
1443289861637474,18,11,-2,-4,-4,-1,0,-1
1443289861638475,-4,-12,-2,-1,-1,-2,-2,-2
1443289861638475,6,8,14,2,-1,-1,1,-2
1443289861659488,-5,3,-3,3,2,-1,-1,0
1443289861659488,-7,1,-5,-6,-2,0,-1,-2
1443289861661490,5,19,-5,4,2,1,0,1
1443289861661490,-2,-4,-4,-2,-3,-1,-2,0
1443289861673503,6,6,-8,-3,-2,-1,-1,0
1443289861673503,-6,1,12,-2,0,-3,-2,-2
1443289861682502,1,-17,-6,-1,0,0,1,0
1443289861682502,-6,-8,-4,0,0,1,0,0
1443289861697523,9,1,-2,-3,0,-1,-2,-3
1443289861697523,-3,8,-6,-6,-2,-2,-2,0
1443289861698514,-2,-11,-5,4,1,0,1,1
1443289861698514,-1,-1,-5,-1,0,-1,-2,-1
1443289861719529,3,-2,-1,-2,-2,-1,-2,-1
1443289861719529,-8,-11,-2,1,0,0,-2,-2
1443289861721529,1,-6,7,-7,-6,-2,-1,0
1443289861721529,1,9,4,-1,1,0,-1,-2
1443289861733539,0,-9,6,4,0,-1,0,0
1443289861733539,1,5,-4,-4,-2,-1,-1,1
1443289861742547,-3,7,6,1,1,0,-1,1
1443289861742547,7,3,-4,-3,-3,-2,-2,-2
1443289861757553,-9,-10,-8,-1,0,0,-1,-2
1443289861757553,5,4,25,3,0,-1,0,0
1443289861758555,-6,-3,8,1,-1,-2,0,1
1443289861758555,-1,6,-14,-2,-1,0,0,1
1443289861779569,-4,-5,15,4,0,0,1,-1
1443289861779569,-2,2,-4,-3,-2,0,-1,-1
1443289861781572,-6,-2,-9,0,0,-1,-3,-4
1443289861781572,-9,-8,-2,-1,-2,-2,-1,0
1443289861793596,10,8,-3,-7,-4,-2,-3,1
1443289861793596,-3,0,-4,3,1,-2,-1,0
1443289861802584,2,-11,-10,0,0,0,1,0
1443289861802584,-12,-14,7,-1,0,0,0,-1
1443289861817598,5,12,-13,-2,-2,0,-1,-1
1443289861817598,8,7,12,2,0,-2,-1,0
1443289861818595,-5,-21,-15,-6,-4,-3,-2,-2
1443289861818595,0,11,6,0,0,0,0,0
1443289861839613,-6,-12,-9,-4,-2,-1,-1,-2
1443289861839613,7,9,-2,3,0,1,0,0
1443289861841610,-3,-1,-6,2,1,0,0,-1
1443289861841610,-4,-9,13,-1,-2,-2,-1,-2
1443289861862628,1,-5,-2,0,0,-2,-1,-1
1443289861862628,-2,-1,-10,0,-1,1,0,-1
1443289861863623,0,19,8,1,-1,1,-1,0
1443289861863623,0,-29,-11,-2,-1,0,0,-1
1443289861877635,0,22,4,-5,-2,0,-2,0
1443289861877635,4,0,-2,0,0,0,0,0
1443289861878635,-6,-3,-2,0,1,-1,-1,-2
1443289861878635,14,9,-2,1,-2,-1,-2,1
1443289861899664,-11,-15,3,-2,-3,-3,-1,-2
1443289861899664,0,9,-6,-6,-3,0,0,-1
1443289861901649,-2,-1,20,1,-1,0,-1,0
1443289861901649,0,-1,-14,8,2,0,0,-1
1443289861922664,0,-12,-7,-4,-1,0,-1,1
1443289861922664,-2,4,7,3,0,-3,-1,1
1443289861923664,0,5,-5,-8,-3,-3,-3,-3
1443289861923664,-3,-11,3,1,0,0,0,-1
1443289861937674,2,14,-8,-3,1,-3,0,-1
1443289861937674,-5,-6,-9,-2,0,1,0,-1
1443289861938674,3,2,0,2,1,-1,0,3
1443289861938674,3,6,12,0,-1,-2,-1,-1
1443289861959688,-6,-8,-7,2,-2,0,-1,-1
1443289861959688,-2,-10,-10,-6,-4,-3,0,-1
1443289861961690,1,5,-7,0,-1,0,1,0
1443289861961690,-3,-2,10,-3,-2,-1,-1,0
1443289861982706,9,22,9,3,0,1,0,-2
1443289861982706,4,-2,-7,-1,-1,-2,-3,-5
1443289861983706,-6,-8,2,-1,1,1,-1,0
1443289861983706,-2,-4,-8,2,1,1,0,0
1443289861996713,-3,-1,2,0,-2,0,0,2
1443289861996713,-3,-9,-6,-3,-1,0,-3,-1
1443289862003721,6,18,-2,-3,-2,-1,0,-2
1443289862003721,-2,3,-5,-5,-1,-2,-2,-1
1443289862019729,1,-6,3,1,0,-2,0,0
1443289862019729,-5,4,-3,0,-1,1,0,0
1443289862021729,1,-12,1,-4,-2,-2,-1,-3
1443289862021729,2,4,-6,-3,0,-1,-1,1
1443289862042744,-5,-2,16,2,1,0,1,-1
1443289862042744,6,2,3,-1,-1,-1,-1,1
1443289862044747,-7,-9,3,3,-1,1,-1,1
1443289862044747,-1,16,11,2,-1,0,-2,-1
1443289862056758,-7,-8,-7,-1,0,-1,-1,0
1443289862056758,8,20,10,1,2,0,-1,0
1443289862063758,-2,-8,-11,-6,-3,-4,-3,-4
1443289862063758,-1,0,-9,-4,0,0,1,-1
1443289862079769,2,-3,-7,3,-1,-2,0,0
1443289862079769,-11,-19,-8,-6,-3,-2,-1,-4
1443289862081771,-2,2,0,-1,-2,-1,0,0
1443289862081771,-1,-4,-4,-5,-1,-2,0,-3
1443289862101783,3,3,-3,-3,-1,0,0,0
1443289862101783,-1,-2,2,2,1,0,0,0
1443289862103785,1,-7,-5,0,0,-1,-1,0
1443289862103785,-4,1,3,0,-1,0,-2,-2
1443289862116794,-2,-1,4,-1,0,-1,-2,-5
1443289862116794,-3,-3,-2,1,-2,-2,0,-2
1443289862123798,4,2,-7,-1,0,0,-1,0
1443289862123798,0,-4,-6,0,-1,-3,-1,1
1443289862139810,-3,7,8,2,-1,0,-1,0
1443289862139810,2,-3,18,4,0,-1,0,3
1443289862141810,0,7,0,-2,-1,0,-2,-2
1443289862141810,-1,-18,-11,2,0,-1,0,-2
1443289862161823,0,8,-3,-1,0,-1,-2,0
1443289862161823,-5,-10,-5,-2,-3,-2,-1,-2
1443289862163824,5,11,7,-1,-2,-3,-3,-2
1443289862163824,1,8,5,-1,-1,0,-1,2
1443289862176835,-9,-26,-7,-2,-1,-2,0,0
1443289862176835,0,8,5,-1,0,0,-1,-1
1443289862183839,-1,-5,-3,-4,-1,0,1,-1
1443289862183839,-3,5,11,1,-2,-2,0,0
1443289862199855,3,1,0,0,-2,-1,-1,-1
1443289862199855,-6,-3,-8,-2,-1,1,-1,-1
1443289862201852,4,3,4,0,-1,-1,-1,0
1443289862201852,0,4,-2,2,-1,0,-1,1
1443289862221863,0,-5,-2,-3,-3,-1,0,0
1443289862221863,-1,5,6,3,-1,-1,-1,-2
1443289862223864,-7,-29,-9,-6,-2,1,1,-2
1443289862223864,1,27,4,-4,-1,0,-2,-1
1443289862236874,-1,3,-5,5,1,-1,-2,-1
1443289862236874,0,-6,3,0,0,1,0,-1
1443289862243877,-4,-10,-2,3,0,0,0,1
1443289862243877,2,9,-9,-7,-3,-3,-1,-3
1443289862259893,0,-7,-5,-4,-1,0,0,0
1443289862259893,-2,11,-5,-1,0,-1,-1,0
1443289862260890,-1,4,7,4,-1,-1,0,-2
1443289862260890,4,-19,-3,-1,0,-1,0,1
1443289862281903,0,5,-4,-4,-1,0,-1,-2
1443289862281903,-2,-7,-4,1,-1,0,-2,-2
1443289862283904,1,-2,-7,-1,-1,0,-1,0
1443289862283904,-4,-6,-1,-3,-1,-1,-1,0
1443289862296914,2,10,3,-1,0,1,0,-1
1443289862296914,-4,-9,-6,0,0,-1,0,0
1443289862303920,-5,-6,-9,1,0,-2,-2,-4
1443289862303920,9,22,22,3,0,-2,0,-1
1443289862320931,-3,-16,-13,-4,-2,-2,0,1
1443289862320931,-4,13,28,1,0,0,0,-1
1443289862325933,-10,3,-7,-2,-1,-2,-3,0
1443289862325933,9,-9,-3,8,0,2,-1,0
1443289862342946,2,-1,-7,-8,-3,-3,-4,-2
1443289862342946,-3,-8,-5,-3,-2,-1,-1,0
1443289862348983,4,6,1,-1,0,-1,1,-1
1443289862348983,-6,-2,-4,-2,-1,-1,-2,-2
1443289862364959,0,1,5,0,0,-1,1,0
1443289862364959,-2,-1,-7,-1,-1,-2,-1,-3
1443289862371965,0,-8,-2,0,-1,1,1,0
1443289862371965,-4,-7,0,-1,0,0,-1,0
1443289862379969,2,5,6,-1,-4,-3,-2,0
1443289862379969,-3,-7,-2,-4,-1,-3,0,-2
1443289862380969,3,-7,-8,0,-2,0,0,0
1443289862380969,-7,5,-5,-3,-2,0,0,-1
1443289862401983,3,11,-6,-2,-1,0,-1,-4
1443289862401983,0,-4,8,2,0,1,0,0
1443289862403985,11,4,2,-2,-1,-2,-2,0
1443289862403985,-4,4,-12,-2,0,-1,-1,-2
1443289862415992,-5,-16,3,-1,-2,1,0,-1
1443289862415992,-3,2,-4,-3,-3,-1,-2,-1
1443289862424999,-2,26,8,1,0,0,-1,-3
1443289862424999,-4,-12,-26,-5,-3,-3,-2,0
1443289862440010,-1,-5,19,6,2,-1,0,0
1443289862440010,6,2,-9,0,0,1,-2,-1
1443289862442012,-6,-12,3,-3,-1,-2,-2,0
1443289862442012,2,-1,-6,-2,-2,-1,0,0
1443289862462028,-6,11,-3,-2,-1,0,-1,-3
1443289862462028,8,2,-7,-1,-1,-1,0,0
1443289862464024,-1,-5,-4,2,2,0,2,1
1443289862464024,2,7,6,0,-1,-2,-1,-1
1443289862476037,-7,-12,-3,-1,1,-2,-1,0
1443289862476037,3,6,-5,-1,-2,0,-1,0
1443289862485039,-2,-4,7,-3,-4,-2,-2,-1
1443289862485039,2,1,3,-1,-1,-2,-1,-3
1443289862500052,-3,-5,1,1,2,2,-1,1
1443289862500052,-2,1,-8,-1,0,-2,0,1
1443289862501051,-3,3,-1,-2,-2,-1,0,0
1443289862501051,-2,-14,0,-1,0,-1,0,-1
1443289862522067,5,5,1,4,1,0,-2,0
1443289862522067,-2,-10,11,-2,-1,-1,-2,-1
1443289862524065,-3,11,0,3,0,0,-1,1
1443289862524065,-5,-13,-5,-4,-1,0,-1,-1
1443289862536073,2,12,-8,-1,-1,0,-1,0
1443289862536073,-7,5,-15,-3,-1,-2,-1,-2
1443289862545081,3,-4,9,2,0,-1,-1,-4
1443289862545081,1,3,-2,-3,-3,-2,0,-2
1443289862560094,-3,-6,-3,-4,-2,-2,-2,-2
1443289862560094,-3,-6,0,-1,-2,0,0,0
1443289862561090,4,8,-6,3,0,-1,-2,1
1443289862561090,-5,-8,4,4,1,2,0,1
1443289862583106,0,1,-6,-7,-3,-3,-2,-3
1443289862583106,-2,-6,8,3,1,0,1,0
1443289862585106,4,0,-6,-1,-2,2,0,1
1443289862585106,-4,-14,3,-2,-2,-2,-2,-3
1443289862596116,3,25,12,5,-1,-1,-1,1
1443289862596116,-2,-6,0,-4,-2,-1,-2,0
1443289862605120,5,-9,6,-2,-2,-1,-1,-1
1443289862605120,-5,3,2,-1,0,1,-1,1
1443289862620131,-3,8,8,-1,-1,0,-1,1
1443289862620131,6,-3,-10,-6,-2,-3,-2,-2
1443289862621130,3,-4,-3,5,1,0,1,0
1443289862621130,-3,-1,0,0,1,-1,-1,-2
1443289862642147,1,-9,-4,-2,-1,-1,0,0
1443289862642147,-1,12,6,2,0,-1,0,0
1443289862644145,-12,-7,-10,-7,-3,-2,0,-4
1443289862644145,4,7,-1,1,-1,0,-1,0
1443289862656154,-5,-9,0,4,0,-2,0,-2
1443289862656154,3,-4,-7,-2,-2,-1,-1,0
1443289862665160,-1,9,13,-1,0,-1,-2,-2
1443289862665160,5,0,1,2,-1,0,-1,0
1443289862680193,-10,-22,-7,-1,0,-1,0,0
1443289862680193,1,3,-5,-2,-2,-1,-3,-1
1443289862681170,2,-11,-18,-6,-3,0,-1,-1
1443289862681170,-4,16,33,6,2,-1,1,0
1443289862702185,1,-14,-11,0,1,-1,0,-1
1443289862702185,-8,-6,-4,0,0,0,2,-1
1443289862704187,8,6,-7,-3,0,-2,-2,2
1443289862704187,-2,-7,-10,-3,-1,-1,0,0
1443289862716195,-4,-27,-10,-5,-1,-1,0,0
1443289862716195,15,40,7,4,0,-2,-2,-2
1443289862725198,-12,-5,5,0,-1,1,0,-1
1443289862725198,-2,0,-9,-2,-2,0,-1,-1
1443289862740212,3,0,6,-3,-2,0,-1,-1
1443289862740212,-7,-17,-5,-3,1,-2,1,0
1443289862741210,-2,0,2,1,0,-1,-1,0
1443289862741210,-1,3,-3,-4,-3,-2,-1,1
1443289862762231,11,6,-3,2,-2,0,0,-1
1443289862762231,-5,-4,7,-2,-3,1,-3,-2
1443289862764227,-3,5,1,-4,-1,-1,-1,-1
1443289862764227,-2,-9,-6,2,1,-3,-1,0
1443289862785389,-1,-2,-7,-4,-2,-2,0,-2
1443289862785389,-2,3,13,3,-1,-2,0,0
1443289862786241,4,1,9,-3,-1,0,-1,0
1443289862786241,-6,-9,0,-1,-1,2,-1,-1
1443289862800250,5,2,-7,-3,-2,0,-2,-2
1443289862800250,1,-3,1,4,2,-1,-1,0
1443289862801249,-5,2,-6,0,0,0,-3,-1
1443289862801249,3,2,-5,-1,-2,-2,-1,-1
1443289862822264,-5,1,-3,-3,0,-3,0,0
1443289862822264,2,2,-1,-3,-1,-1,0,0
1443289862824265,-2,-6,3,-3,-3,-2,0,0
1443289862824265,3,1,-6,4,0,1,0,-2
1443289862845279,-4,-20,2,0,-2,0,0,-3
1443289862845279,1,20,-2,1,1,-3,0,1
1443289862846279,1,4,2,1,-1,-2,-1,0
1443289862846279,3,-5,-7,-3,-2,-1,0,0
1443289862859289,-9,0,4,1,1,-1,-1,-1
1443289862859289,0,-18,-3,-2,-2,-1,-2,-2
1443289862861290,-2,-3,-8,-5,0,0,0,0
1443289862861290,-3,15,17,9,2,0,-1,2
1443289862882311,-1,3,4,-1,-2,-1,0,0
1443289862882311,18,6,-7,0,-1,1,1,2
1443289862884305,-14,-14,0,-1,0,-1,0,0
1443289862884305,-1,-6,3,-7,-2,-2,-1,-1
1443289862904322,1,8,10,1,1,-2,1,2
1443289862904322,-4,18,-1,4,1,3,-1,-1
1443289862906320,3,6,8,0,-1,-2,-1,-2
1443289862906320,-1,-8,-8,-5,0,-2,0,0
1443289862919329,-7,-9,-1,-1,-2,1,0,1
1443289862919329,6,7,-7,-3,-1,-1,1,0
1443289862926337,1,0,1,4,0,1,1,-1
1443289862926337,-10,-14,-4,-4,-3,-4,-2,-4
1443289862942352,3,16,1,-2,0,-1,-2,0
1443289862942352,-9,-21,6,1,3,0,0,-2
1443289862944346,-4,-11,-2,0,-2,0,-1,1
1443289862944346,9,14,-3,-2,-2,0,-1,-1
1443289862965359,0,19,-3,-1,-1,0,0,-1
1443289862965359,-4,-4,-4,0,1,0,-1,-3
1443289862966360,4,4,5,2,0,-2,-1,-1
1443289862966360,-9,-14,1,-3,-1,0,0,-2
1443289862979373,0,8,1,-4,-2,0,0,0
1443289862979373,-1,-11,-9,-1,-1,0,0,-2
1443289862985372,-3,4,2,3,0,1,-2,-1
1443289862985372,17,11,-3,-2,0,-2,0,2
1443289863002386,-5,-1,2,-1,-1,-1,-1,-3
1443289863002386,-2,-10,1,-6,-4,-2,-2,-1
1443289863003392,-3,-10,-4,-2,-2,-2,0,-2
1443289863003392,-2,7,7,5,2,3,2,1
1443289863024399,10,8,-3,2,0,-2,-2,-3
1443289863024399,-11,-10,-6,-5,-4,-2,-1,-3
1443289863026400,2,3,-5,-2,-2,1,0,1
1443289863026400,-2,-17,-12,-1,0,0,-2,0
1443289863039410,-4,-4,-3,-2,-3,-1,-2,0
1443289863039410,2,-1,-1,-2,-1,-3,-1,-1
1443289863046414,-3,-6,-3,-1,0,0,2,0
1443289863046414,1,3,-2,-2,1,0,-1,-1
1443289863062429,5,9,2,1,-1,-2,-2,0
1443289863062429,-17,-41,-6,-3,0,-1,-3,-2
1443289863063425,11,27,-6,-2,-1,-1,-3,0
1443289863063425,-10,-6,8,-2,-2,1,-1,-3
1443289863084438,-5,-5,-5,-4,0,-1,-1,-2
1443289863084438,4,9,7,5,2,-1,1,0
1443289863086440,6,9,8,1,0,0,1,1
1443289863086440,0,0,-6,-2,-1,-1,-2,-1
1443289863099450,5,-17,-1,0,-1,0,-1,0
1443289863099450,2,0,-1,-2,-2,2,0,2
1443289863107454,-7,3,-13,-7,-2,-1,-2,-1
1443289863107454,3,-2,19,6,1,0,-1,1
1443289863130484,-5,-3,0,3,-2,-1,-2,-4
1443289863130484,-2,2,8,1,2,-1,-1,-1
1443289863131473,-3,-11,-3,-1,-2,-1,-3,-2
1443289863131473,-3,4,-8,-2,0,-1,0,0
1443289863144478,-5,-9,1,1,0,0,-1,0
1443289863144478,3,20,-5,-5,-4,-3,-7,-4
1443289863152484,5,3,-1,0,0,-1,4,1
1443289863152484,-10,-5,-2,-1,-2,0,2,-3
1443289863159493,4,-9,-7,-2,-2,0,-1,-1
1443289863159493,3,24,-1,-3,0,-1,1,-1
1443289863173499,-5,-8,2,2,-1,-1,-2,-2
1443289863173499,7,-7,-5,1,1,0,-1,1
1443289863182508,-7,23,4,-1,-2,-2,1,0
1443289863182508,3,-14,-2,-2,-2,-1,0,1
1443289863183504,-3,-4,4,0,0,-2,-1,-3
1443289863183504,-2,3,-2,0,-1,-2,-1,-1
1443289863204521,2,4,0,-2,-2,0,-2,-1
1443289863204521,-3,-4,0,-1,-2,-1,2,0
1443289863206520,-5,-13,-5,-2,0,1,0,1
1443289863206520,-2,5,-2,-1,-3,-3,-1,0
1443289863219532,3,2,0,1,1,1,-3,-3
1443289863219532,3,8,-4,-3,-3,-1,-3,-1
1443289863225533,-2,-5,2,1,-1,1,1,-1
1443289863225533,1,-3,-2,-3,-2,-2,0,-2
1443289863242544,-5,-9,0,2,-1,-1,-1,0
1443289863242544,-5,0,1,-1,0,-1,0,0
1443289863244545,-2,-2,0,0,-1,-1,-1,0
1443289863244545,4,6,-4,-2,-2,-2,-3,-2
1443289863264566,-3,-13,0,1,-3,1,2,1
1443289863264566,3,-2,-1,2,4,-2,-2,-4
1443289863266560,-17,-1,-5,-3,-3,-2,-2,-2
1443289863266560,17,22,5,0,-1,0,-2,-1
1443289863287575,0,-6,-1,-2,0,-1,-1,-1
1443289863287575,-16,-24,-4,0,-2,0,2,-1
1443289863288578,13,5,0,-3,-3,-2,-3,-2
1443289863288578,-7,6,-4,-3,-2,-1,-1,0
1443289863302592,-1,-4,1,-4,-1,-2,0,-1
1443289863302592,4,1,2,2,-2,2,2,2
1443289863308589,1,15,0,1,0,0,-1,-2
1443289863308589,-1,-4,5,-2,-2,1,0,-1
1443289863332610,3,5,-1,1,1,-2,1,-1
1443289863332610,-3,-8,-5,-2,-3,-1,-1,-1
1443289863333607,1,-4,-3,-2,0,0,1,-1
1443289863333607,1,-8,-10,-4,0,0,0,0
1443289863338609,-11,-16,10,1,1,0,1,0
1443289863338609,8,27,-2,-2,0,1,-1,0
1443289863353619,-1,-7,5,-1,-1,-1,-1,-3
1443289863353619,-4,-2,-5,0,-1,0,-1,0
1443289863362625,-6,-6,-3,-2,-2,-1,-1,-1
1443289863362625,12,-1,-11,-3,-4,0,0,1
1443289863364626,-7,-13,5,3,-3,-1,-1,-1
1443289863364626,-1,10,-4,-2,4,-1,-2,1
1443289863384643,4,6,5,0,1,0,4,0
1443289863384643,-9,-5,2,-3,-4,-2,3,-1
1443289863386640,4,11,5,2,5,-1,1,-1
1443289863386640,3,3,6,2,-11,-1,0,2
1443289863398648,-10,-17,-15,-3,-4,-1,0,-1
1443289863398648,4,18,-1,-1,-1,0,-2,0
1443289863407672,0,-2,-7,-2,-2,0,2,0
1443289863407672,-3,1,3,0,2,0,-2,-1
1443289863422665,5,6,0,-1,0,-1,-3,-1
1443289863422665,-9,-18,-1,2,-2,0,-1,-2
1443289863423668,-2,-2,-8,-1,-1,-1,-3,-3
1443289863423668,-9,3,-5,-2,-1,-1,-2,-4
1443289863445680,11,17,-2,0,-4,-1,-3,-2
1443289863445680,-4,-7,6,2,2,0,-1,-1
1443289863450684,-4,-13,-7,-2,-2,-1,1,1
1443289863450684,-6,13,4,0,-1,-1,0,-1
1443289863458690,-3,-3,0,-2,-1,-1,-1,-3
1443289863458690,5,-15,-5,-1,-3,-1,-3,-1
1443289863467698,10,19,4,1,4,0,-2,3
1443289863467698,-11,-21,-2,0,-4,-4,-2,-4
1443289863482707,-3,0,-7,-1,1,-1,-2,1
1443289863482707,3,12,2,-1,-2,0,-1,2
1443289863483709,-2,-9,8,2,-4,0,0,2
1443289863483709,2,-13,3,-2,3,1,1,0
1443289863504719,6,10,-6,1,1,-1,2,4
1443289863504719,-9,3,-1,0,-1,-1,-2,-4
1443289863506720,-1,-3,1,1,0,2,-1,1
1443289863506720,-2,-12,-6,-2,-2,0,0,-2
1443289863518731,3,1,4,0,1,1,0,-1
1443289863518731,9,-3,-7,-5,0,-1,0,2
1443289863527735,-7,2,1,-1,-1,-2,-1,-1
1443289863527735,12,10,-1,-2,-1,-1,0,1
1443289863542752,-6,-12,-2,-3,-3,-1,-2,-3
1443289863542752,-3,-18,1,1,0,-1,-3,0
1443289863543747,-1,9,-14,-7,-3,-2,1,-4
1443289863543747,-7,-8,14,9,2,4,4,1
1443289863564759,2,1,-1,-1,-3,0,0,0
1443289863564759,-3,-3,-1,-2,-2,0,-1,-2
1443289863567765,9,19,-2,-2,2,-2,-4,-3
1443289863567765,-1,-2,-8,-3,4,0,-2,-3
1443289863587775,-6,-9,-1,1,3,-1,1,-2
1443289863587775,-2,-12,3,0,-9,-1,-1,0
1443289863588776,1,-5,-7,-2,-7,1,0,2
1443289863588776,-1,25,2,-2,0,-2,-2,-4
1443289863609789,0,-15,-5,-2,1,0,-1,-1
1443289863609789,5,13,4,1,3,0,-1,0
1443289863611792,-9,-20,2,0,0,0,-2,-5
1443289863611792,-1,-16,-5,-1,-2,-1,1,3
1443289863632805,2,22,7,1,-3,-2,-2,0
1443289863632805,-4,-3,-6,-2,-1,-1,1,-2
1443289863633805,2,6,17,5,-1,-1,0,-1
1443289863633805,-4,-3,-1,0,-1,0,0,-1
1443289863638809,1,1,-6,-3,-4,-1,-2,-2
1443289863638809,-4,1,3,0,3,-1,0,-2
1443289863654821,-1,-3,-2,-2,3,-2,-1,2
1443289863654821,1,4,-8,-2,-3,-1,-1,0
1443289863662826,-10,-17,5,4,1,0,0,-2
1443289863662826,9,15,2,2,1,-1,0,0
1443289863664827,0,2,-4,-3,-3,-2,-3,-3
1443289863664827,-1,-22,-8,-5,-2,-2,-3,1
1443289863684840,-1,13,-1,-1,-3,-1,2,1
1443289863684840,0,5,2,2,0,2,3,1
1443289863686840,4,-6,-2,1,-3,1,2,1
1443289863686840,-5,-2,-3,-2,-1,-2,-2,-3
1443289863698849,0,-5,2,1,-1,-1,-2,-2
1443289863698849,-2,2,-2,-3,-1,-3,-1,-2
1443289863707855,4,-1,4,1,-3,-2,0,1
1443289863707855,-7,-9,-2,-1,1,0,2,0
1443289863722866,5,25,6,-3,-3,-4,-4,-2
1443289863722866,-3,-3,1,1,-1,-2,0,-4
1443289863724868,0,2,-3,0,1,1,-3,-1
1443289863724868,-3,-10,0,-1,-3,-1,-1,-2
1443289863744884,2,6,-4,-3,1,-1,1,1
1443289863744884,-1,-2,-7,-5,-1,-1,-1,-1
1443289863746880,-2,-1,2,3,1,-1,-1,0
1443289863746880,4,0,3,2,0,2,0,2
1443289863766894,2,2,-8,-2,-3,-1,-1,0
1443289863766894,-8,4,13,1,1,-1,1,-1
1443289863769899,2,-22,-7,-7,-3,-1,-1,0
1443289863769899,1,0,-8,4,0,1,0,0
1443289863782905,-1,-2,-3,0,1,1,1,0
1443289863782905,-1,-6,-2,-1,0,0,-1,1
1443289863783905,-4,3,-2,0,-1,-2,-1,-2
1443289863783905,-3,-1,5,-2,-1,-1,-1,-2
1443289863804921,-6,-37,-6,-4,-2,-1,-3,0
1443289863804921,10,42,3,4,1,-1,-2,0
1443289863806921,-2,2,5,-1,-1,1,0,0
1443289863806921,1,4,-3,-2,-1,1,-1,-1
1443289863827981,-3,2,1,1,1,-2,-3,-4
1443289863827981,-2,-24,-10,-1,-2,1,2,-1
1443289863828935,-3,2,-4,-2,-4,-2,0,-1
1443289863828935,2,9,7,2,5,-2,-1,-1
1443289863842945,-5,-5,-6,-2,-5,1,2,0
1443289863842945,5,-5,2,0,12,2,3,3
1443289863843945,-6,3,-2,-3,-9,-3,1,-2
1443289863843945,0,-6,-4,-2,-4,-3,-1,0
1443289863864961,5,9,5,2,-3,0,0,-1
1443289863864961,-1,-14,-4,-2,-3,0,-3,0
1443289863866961,-2,-8,-6,-2,1,-1,1,-2
1443289863866961,4,14,-1,-1,-3,-1,-2,-2
1443289863886974,6,22,5,5,0,0,-1,-1
1443289863886974,-17,-23,-4,-3,-3,-2,-4,-4
1443289863888976,2,-5,-8,-1,2,0,0,-1
1443289863888976,2,-19,1,-2,-3,-1,0,1
1443289863901985,-5,18,5,-1,-2,-2,-3,-4
1443289863901985,14,9,-1,-2,-2,0,-1,0
1443289863908989,-15,-29,-2,-1,6,1,-2,2
1443289863908989,3,20,1,-4,-11,-4,-2,-3
1443289863925000,-3,-7,1,-4,0,-1,2,3
1443289863925000,0,0,-1,0,1,-1,-2,0
1443289863939009,7,4,3,0,0,0,-2,-3
1443289863939009,-7,5,2,2,1,1,-2,-1
1443289863955020,-6,-17,-3,-1,2,0,0,1
1443289863955020,0,-7,-3,-3,-6,-2,-2,0
1443289863956020,-4,19,3,1,0,-1,-1,-3
1443289863956020,5,-19,-1,0,2,-1,2,2
1443289863962025,-1,14,-4,-2,-5,-2,-1,-2
1443289863962025,1,-3,0,-2,-1,-1,0,-2
1443289863976036,-1,0,-2,-3,-4,-2,-1,-1
1443289863976036,-4,3,-2,-1,-1,-1,0,-1
1443289864000055,-2,-6,-1,0,-1,-1,-1,0
1443289864000055,0,-8,-3,-2,-3,-1,-2,1
1443289864001050,2,19,5,3,1,0,0,1
1443289864001050,-2,-9,-8,-1,0,-1,-3,-1
1443289864007057,4,-1,0,2,2,0,3,-1
1443289864007057,2,9,2,-3,-3,-1,-1,-4
1443289864009056,-5,-8,-2,1,-1,-2,-3,-2
1443289864009056,0,-2,-3,-4,1,0,1,-1
1443289864022070,-3,-3,-1,-2,0,0,-1,1
1443289864022070,-8,1,1,3,0,-1,1,-4
1443289864028072,6,0,2,-1,-1,-1,-1,0
1443289864028072,0,3,-1,-1,-1,0,-3,-3
1443289864045080,5,10,0,1,0,0,-2,-1
1443289864045080,-7,-1,-1,-3,-6,0,0,-1
1443289864046081,3,-2,-2,-1,6,0,0,0
1443289864046081,-2,7,-1,1,-1,-1,1,1
1443289864067095,-3,-18,-2,-1,0,0,0,-1
1443289864067095,1,0,-1,-1,0,-2,-3,1
1443289864069096,3,5,-7,-2,-2,-1,0,0
1443289864069096,2,-8,7,3,0,-1,2,-1
1443289864082106,3,9,1,-1,0,-1,-2,-1
1443289864082106,-12,-17,0,0,0,-1,0,-3
1443289864088113,2,-6,-2,-2,-2,-1,1,0
1443289864088113,3,2,-4,-1,1,0,-1,1
1443289864105120,10,3,2,-1,-1,-1,-2,0
1443289864105120,-11,0,-1,2,0,0,-1,-2
1443289864106121,3,0,-2,-4,-2,-1,0,1
1443289864106121,3,2,-2,-3,-3,-1,-1,-1
1443289864127134,-11,-10,1,0,0,-1,1,0
1443289864127134,8,-4,-1,-2,0,1,1,1
1443289864129136,-1,7,4,0,-1,0,-2,-2
1443289864129136,-5,4,4,2,0,0,0,0
1443289864142146,-2,3,1,-3,-2,-1,-1,0
1443289864142146,0,10,1,0,-3,-2,-2,-1
1443289864149151,-1,-14,-8,-4,-1,2,0,1
1443289864149151,3,2,1,-3,-2,0,-2,-1
1443289864165160,-8,-12,-13,-2,1,-1,-1,-2
1443289864165160,6,1,5,2,-8,0,-2,0
1443289864166159,6,9,-2,1,2,1,0,2
1443289864166159,-2,11,-1,2,0,-2,-3,-1
1443289864187183,4,6,5,0,-4,-2,-2,-4
1443289864187183,-4,-10,-6,-3,1,-1,-3,-1
1443289864189177,-11,-3,-1,-1,0,-1,0,-2
1443289864189177,0,-12,-7,-1,-2,-1,0,-1
1443289864202224,3,7,3,-1,0,-3,-2,0
1443289864202224,-6,-3,-3,-1,1,-1,-1,-2
1443289864208188,-3,-4,4,-1,-4,-2,0,-2
1443289864208188,-3,5,-1,-3,1,0,-2,1
1443289864225205,2,1,1,1,0,-1,-6,-2
1443289864225205,1,0,1,1,2,-1,5,1
1443289864226202,-3,-1,0,1,-3,-1,-1,-1
1443289864226202,3,2,1,-3,-3,-1,0,0
1443289864248219,2,-2,-5,-5,-2,1,-1,-2
1443289864248219,-7,-7,-5,-2,0,-1,-2,-3
1443289864253222,-5,-6,2,2,1,-1,0,-2
1443289864253222,-1,-1,1,2,0,-1,-1,-2
1443289864261230,9,-2,-3,-4,-3,-2,0,1
1443289864261230,-3,0,-1,0,1,0,0,-1
1443289864277239,-1,-10,-8,-3,0,-1,0,0
1443289864277239,1,3,16,1,-2,0,-2,-2
1443289864285242,-7,8,6,-3,0,-1,1,0
1443289864285242,-4,-3,-2,-3,-2,-1,0,1
1443289864286245,8,-20,-4,3,-1,0,-1,2
1443289864286245,4,27,-2,2,1,0,0,-1
1443289864308257,-6,-18,-1,0,1,1,0,0
1443289864308257,3,5,-1,-2,2,-1,-1,-1
1443289864309257,-4,8,4,-3,-1,0,-3,-2
1443289864309257,-7,-32,-7,-1,1,-1,-1,-4
1443289864321265,-3,-5,-3,1,-6,-1,-1,0
1443289864321265,4,8,-5,-1,-3,-2,0,-2
1443289864330271,-3,-4,1,-2,-1,-2,-1,1
1443289864330271,3,9,0,-3,-2,-3,-5,-2
1443289864345281,-1,-6,-1,2,3,1,-1,0
1443289864345281,2,-4,-4,0,2,0,3,1
1443289864346280,-1,3,-3,-1,-2,-2,0,-3
1443289864346280,-1,-4,1,2,2,0,0,1
1443289864367296,-2,8,-4,0,0,0,-3,-2
1443289864367296,-12,-21,-2,-1,-2,2,-3,0
1443289864369295,8,10,0,-2,-1,-1,-1,-2
1443289864369295,4,8,-4,-4,6,-1,-2,-2
1443289864381304,-7,-9,1,-3,-11,-3,0,-4
1443289864381304,8,7,-1,4,0,1,0,1
1443289864390313,-3,-2,-1,-2,-2,-1,-2,-1
1443289864390313,-8,-10,-5,0,-3,-2,1,-1
1443289864405321,3,-4,-5,-1,1,-1,-1,0
1443289864405321,-1,4,6,2,3,0,0,-1
1443289864406321,2,2,-4,-2,-2,-1,-2,-1
1443289864406321,-4,-16,2,-3,-4,-1,0,0
1443289864427335,-9,12,2,3,8,-1,-1,-4
1443289864427335,4,8,0,-2,2,0,-3,-1
1443289864429336,-2,7,2,2,0,-1,-1,-4
1443289864429336,-3,-9,-3,-1,-1,0,2,-1
1443289864441344,-3,-11,-4,-1,-3,1,1,1
1443289864441344,6,14,2,-1,-1,-2,-2,-3
1443289864450351,0,-1,4,1,-2,-4,0,-3
1443289864450351,0,-4,-5,-2,-3,1,0,1
1443289864465481,-2,1,-3,-1,2,1,-1,-1
1443289864465481,0,-6,0,-1,-2,-1,-7,-2
1443289864466361,-7,-27,-6,-2,-2,0,1,1
1443289864466361,1,42,2,-2,-5,-1,-6,-2
1443289864487374,3,-13,11,0,-1,0,2,1
1443289864487374,2,0,0,0,-2,-2,1,0
1443289864489378,-1,-10,-5,-1,-2,-2,-4,-2
1443289864489378,-3,-7,-1,-2,-1,0,-2,-1
1443289864501388,0,-2,-3,-2,1,-1,1,0
1443289864501388,1,19,0,-2,-3,-1,-1,-1
1443289864511394,-2,3,1,1,-1,-1,1,0
1443289864511394,-2,-12,-2,1,1,0,2,0
1443289864524401,0,6,0,-1,-3,0,1,0
1443289864524401,2,-5,-1,0,2,0,2,-1
1443289864526402,-1,5,1,-3,-6,0,-2,-2
1443289864526402,0,-8,-4,-4,-1,-1,0,-1
1443289864548430,1,3,-1,-2,-3,-1,-3,-2
1443289864548430,-4,-2,2,1,0,-2,0,-2
1443289864549417,2,3,1,0,4,-1,0,3
1443289864549417,-1,-2,0,-1,1,-1,-1,-2
1443289864561425,1,4,-3,-3,-4,-1,-6,-2
1443289864561425,-5,-12,-1,-4,-3,-2,1,1
1443289864577444,4,17,0,2,3,1,0,-1
1443289864577444,3,8,4,3,-2,-2,1,0
1443289864584441,-3,-1,-6,-3,-1,0,-1,0
1443289864584441,-3,-33,-6,-4,-4,1,-1,-1
1443289864586442,-5,-1,4,0,1,-1,-1,-3
1443289864586442,2,8,3,1,-2,0,-3,-1
1443289864607457,3,9,0,0,0,-1,-1,-1
1443289864607457,-7,-7,-2,0,-4,-2,-2,0
1443289864609457,0,-5,-5,-3,1,2,0,0
1443289864609457,0,-10,-3,1,2,0,1,1
1443289864621463,3,-5,1,-2,-2,-2,-1,1
1443289864621463,1,18,1,-3,-2,0,-2,-2
1443289864629471,0,5,-2,-1,-2,-1,0,0
1443289864629471,-3,-2,1,-1,5,0,0,0
1443289864644481,-2,-13,-6,0,-4,0,2,0
1443289864644481,-7,-9,-3,2,1,-2,1,-1
1443289864646482,8,17,4,0,-4,-2,-1,0
1443289864646482,-5,-18,-2,-2,2,-1,-1,-2
1443289864667506,5,9,-1,-2,0,-1,0,-2
1443289864667506,6,-2,0,-2,1,-1,1,-1
1443289864669495,-13,3,-4,-2,0,1,5,1
1443289864669495,-1,7,6,2,-4,-1,-1,0
1443289864689511,7,-7,-6,3,4,0,0,0
1443289864689511,1,7,-2,0,-4,0,-4,-3
1443289864691510,-1,-3,2,-3,0,-1,-2,-2
1443289864691510,-4,-2,-1,-3,-7,-2,-1,-3
1443289864704522,-3,-14,-3,-2,-2,-5,-1,-2
1443289864704522,-4,-8,-1,1,2,1,-3,2
1443289864706521,3,21,4,3,-2,-2,-1,-1
1443289864706521,-3,4,-4,0,2,1,-1,-1
1443289864727535,8,12,3,0,-4,-1,0,2
1443289864727535,-6,-5,-4,-1,1,-1,0,-1
1443289864728536,-4,-28,1,2,-1,0,-1,0
1443289864728536,-3,2,-5,-4,-1,-1,0,0
1443289864749559,1,20,5,1,1,-2,2,-1
1443289864749559,2,-2,-3,-1,-3,-1,-3,1
1443289864751551,-1,-16,-5,0,0,-1,-2,0
1443289864751551,7,15,1,-1,-1,-3,-1,2
1443289864764559,-9,-23,-1,-2,-1,0,-2,-4
1443289864764559,0,10,1,-1,0,-1,-1,0
1443289864766562,-2,6,0,-2,0,-1,-7,-2
1443289864766562,9,1,-2,-1,4,1,0,-1
1443289864787579,-11,-16,-7,-1,-6,0,-2,-1
1443289864787579,12,23,7,2,-3,-1,-1,-4
1443289864788575,4,-8,-1,0,0,0,1,2
1443289864788575,-3,-8,-4,-3,-1,-3,-2,-3
1443289864809591,-4,4,1,-1,1,-1,-1,-1
1443289864809591,-4,-13,-4,-1,0,0,1,0
1443289864811591,-5,5,-6,-3,-2,-1,1,-2
1443289864811591,6,9,5,1,-4,-3,1,-1
1443289864824600,0,-2,-2,0,-1,-3,-3,-2
1443289864824600,-7,-7,1,-1,3,0,1,-1
1443289864830605,12,21,4,0,-11,-1,4,1
1443289864830605,-7,-19,-5,-2,-2,-1,-3,0
1443289864847617,-7,8,1,-2,0,0,3,-3
1443289864847617,5,5,1,0,-1,-2,5,2
1443289864849616,-1,2,-1,-1,3,-1,-1,0
1443289864849616,2,-23,-2,1,-1,1,0,1
1443289864869634,5,7,4,-2,-3,-1,-4,-2
1443289864869634,-4,4,1,0,2,-1,-3,-1
1443289864871631,-3,-16,2,3,1,0,2,2
1443289864871631,6,-14,-5,-3,-5,-1,-5,-1
1443289864884640,-4,4,-5,-1,5,1,-1,1
1443289864884640,-1,11,2,-3,-2,-2,-1,0
1443289864890643,-2,-9,-4,-1,3,1,0,-2
1443289864890643,-5,-5,-1,2,-8,-2,0,0
1443289864907657,2,17,0,0,-1,0,-1,2
1443289864907657,3,-12,-4,-1,-4,-2,-1,0
1443289864908657,-8,-6,-1,-3,-2,-2,-4,-3
1443289864908657,1,1,1,-4,1,-2,0,-5
1443289864929671,11,21,2,1,1,0,6,2
1443289864929671,-4,-8,2,1,-3,-2,-1,-2
1443289864931672,-6,-12,-2,-2,0,-2,-2,-2
1443289864931672,-13,-9,-2,-1,1,0,-1,1
1443289864944680,2,-11,-4,-1,2,-2,-4,-3
1443289864944680,7,-1,-5,-4,-1,-6,-8,1
1443289864950685,-11,-40,-6,1,0,2,5,2
1443289864950685,14,90,13,0,-4,-1,0,-3
1443289864967702,-3,-14,0,1,5,-2,-1,0
1443289864967702,-4,1,-2,0,0,2,0,0
1443289864968697,4,-9,-5,-2,-2,-3,-7,-3
1443289864968697,-6,-15,-3,-1,-1,0,0,1
1443289864989709,-8,-19,-2,-1,-3,-1,-1,-2
1443289864989709,0,17,2,-2,-2,0,-2,0
1443289864991711,7,7,1,-1,-2,-2,-1,0
1443289864991711,-5,-6,-1,-2,2,0,1,0
1443289865004844,1,-16,-3,0,-2,1,-1,-1
1443289865004844,2,9,2,0,-2,0,0,-2
1443289865010724,5,38,3,1,3,3,5,2
1443289865010724,6,27,3,1,0,-1,-2,-2
1443289865027739,-11,-31,-8,-5,-4,-1,0,-4
1443289865027739,-2,-8,-1,3,5,3,1,3
1443289865028736,-5,-13,-3,-5,-7,-3,-3,-3
1443289865028736,-5,-21,-4,0,-1,-1,1,0
1443289865049754,0,9,3,0,-1,-2,1,1
1443289865049754,0,-6,-4,-2,-4,-2,-1,-3
1443289865051754,-5,-8,2,2,4,1,-1,-2
1443289865051754,-2,-15,-3,2,-1,2,0,2
1443289865063760,10,23,5,0,-1,-3,-4,-2
1443289865063760,-12,-12,-3,-4,-1,-2,-1,-3
1443289865070774,9,5,-2,-4,0,-1,2,0
1443289865070774,-2,-11,0,-2,-3,-1,-1,-1
1443289865087776,-3,16,2,1,0,1,1,0
1443289865087776,-1,-3,-2,-2,-1,-1,-2,0
1443289865088775,-2,6,-3,2,3,0,-2,0
1443289865088775,-3,-35,-6,-2,-3,-1,-2,0
1443289865109791,3,21,4,0,0,-2,-2,0
1443289865109791,2,30,2,-2,-1,-2,-1,-3
1443289865111791,-9,-15,-4,0,1,-3,-4,-4
1443289865111791,4,-11,-2,0,0,-1,3,0
1443289865123806,-4,-22,-1,0,-2,-1,-3,-1
1443289865123806,0,9,1,-1,0,0,1,0
1443289865130807,9,18,3,-1,-3,-1,-2,0
1443289865130807,-4,4,-1,0,-1,-2,-1,-1
1443289865147818,3,-1,0,-1,1,0,2,0
1443289865147818,-6,-17,-4,-3,-6,0,-1,0
1443289865148816,-2,0,3,0,5,-1,-3,0
1443289865148816,-6,-5,-3,-1,1,-1,-1,0
1443289865170831,5,5,-1,0,-3,0,2,1
1443289865170831,1,-7,4,1,5,0,2,1
1443289865175834,2,5,-1,-5,-8,-2,-1,-2
1443289865175834,-3,-7,-5,-1,2,0,-2,0
1443289865183845,-2,-11,-3,-1,-4,-1,0,1
1443289865183845,2,-3,0,0,1,-1,-4,-2
1443289865192849,-2,-16,-1,0,2,0,0,1
1443289865192849,2,37,2,1,-2,-1,-3,-2
1443289865207856,-4,-16,-1,0,0,0,-1,0
1443289865207856,-5,4,1,2,-2,0,1,1
1443289865208856,9,11,0,-4,-2,-5,-4,-2
1443289865208856,4,-13,-2,-3,0,-1,-2,-1
1443289865229870,-4,20,0,-2,-2,-1,-2,-2
1443289865229870,0,-8,-1,2,0,0,-1,-1
1443289865231871,-4,13,4,2,-2,1,-4,0
1443289865231871,0,-8,1,-3,3,0,1,-1
1443289865243878,-1,-9,-3,-1,-1,0,-4,-3
1443289865243878,2,-17,-6,-5,-2,1,1,0
1443289865252887,-2,14,2,1,3,-2,0,-1
1443289865252887,-7,-15,-2,-2,-4,-2,-3,-3
1443289865267899,-5,8,0,-2,-3,-1,0,-1
1443289865267899,3,8,-3,-2,2,-2,0,-1
1443289865268896,5,-9,0,0,-5,0,2,-2
1443289865268896,-8,3,0,-4,-1,0,0,-3
1443289865289911,8,-12,0,2,0,0,0,1
1443289865289911,-7,-3,-1,0,-1,0,-2,-2
1443289865291912,6,14,-2,-3,-2,0,0,-2
1443289865291912,0,-5,-1,-1,0,-1,1,3
1443289865303921,-5,0,-1,-3,-1,0,-4,-1
1443289865303921,2,-5,-1,0,-2,-3,0,0
1443289865312928,-3,10,2,3,2,1,1,1
1443289865312928,-4,-14,-4,-1,-1,-2,-3,-2
1443289865326935,-1,-1,-1,-1,-7,-1,3,0
1443289865326935,-3,3,0,-3,-4,-1,4,0
1443289865328937,2,4,-1,-3,-1,-1,-1,0
1443289865328937,1,18,0,1,-1,-2,-1,-1
1443289865349951,-3,-4,-2,-1,2,0,-1,-1
1443289865349951,-2,-14,-5,-2,-1,-2,-2,-2
1443289865351951,-1,-12,-2,2,-2,1,-1,1
1443289865351951,-2,21,14,6,2,0,3,1
1443289865364094,-2,-12,-2,-2,1,-2,-4,-1
1443289865364094,3,35,1,-1,-3,-1,-2,0
1443289865371966,-7,-33,-6,-3,-1,-2,-2,-2
1443289865371966,3,6,-2,-1,-1,0,-4,-1
1443289865386975,-4,-3,0,0,-2,0,0,-2
1443289865386975,-1,-11,2,-2,2,1,-5,-2
1443289865388977,-3,-2,-1,-4,-6,0,1,-1
1443289865388977,0,-3,0,3,0,0,1,0
1443289865409990,1,10,0,1,-4,-2,1,-1
1443289865409990,-1,-3,-3,0,-2,-1,-2,-2
1443289865411992,-4,1,0,-2,6,0,2,1
1443289865411992,-5,-17,-6,-2,-3,-1,-1,-3
1443289865424000,3,3,-1,-3,2,-1,-1,0
1443289865424000,-1,-8,-3,-1,-1,0,-1,0
1443289865433007,0,13,2,-1,-3,-4,-1,-1
1443289865433007,0,9,2,0,0,0,1,-1
1443289865447016,-4,-10,-4,-2,1,0,-1,-2
1443289865447016,3,9,1,-1,1,-2,-2,-1
1443289865449016,2,0,0,2,-2,-1,-2,0
1443289865449016,0,-6,-3,-2,5,1,-7,-1
1443289865470034,-2,-6,-1,-1,-7,-2,1,-1
1443289865470034,-3,-13,-3,0,-1,1,1,1
1443289865471032,0,15,2,0,0,-4,0,-2
1443289865471032,5,-6,-3,-2,-4,-2,-2,-1
1443289865484087,-4,9,-1,1,5,0,-4,-3
1443289865484087,-7,-36,-4,-5,-4,-2,3,-3
1443289865493045,3,40,6,1,-1,0,1,-2
1443289865493045,-2,-6,-2,0,4,-1,-3,-2
1443289865507055,-1,-2,-3,-3,-9,-2,4,0
1443289865507055,0,-2,-2,0,-2,-1,1,-1
1443289865509056,-4,-20,-3,-2,-1,1,-1,-2
1443289865509056,3,2,-1,-3,-3,-2,2,-2
1443289865530077,-1,0,0,1,2,0,-3,1
1443289865530077,1,13,3,0,1,-2,-2,0
1443289865531084,0,-17,0,1,-2,1,0,1
1443289865531084,-7,-11,-11,-3,-2,-1,0,-1
1443289865544082,0,-14,-2,-1,2,0,0,-1
1443289865544082,-1,34,3,2,-2,-1,-1,1
1443289865552090,3,-5,-2,-2,-1,-1,-6,-4
1443289865552090,-2,4,1,1,-1,-1,4,1
1443289865567095,-1,13,-2,-1,1,0,1,-1
1443289865567095,-2,-5,1,1,0,0,0,-2
1443289865569098,-3,-9,-2,-1,-2,0,-2,-1
1443289865569098,1,16,4,0,-3,-2,-4,-1
1443289865590111,-5,-8,0,-2,-2,-2,-1,-1
1443289865590111,0,-1,1,0,-1,0,0,2
1443289865591112,3,1,-2,-2,-2,-3,-3,-2
1443289865591112,1,-5,-4,-1,-4,1,3,1
1443289865612126,-1,-4,3,-1,3,-2,0,0
1443289865612126,-1,1,-3,2,0,0,-3,-2
1443289865614127,-3,-5,0,2,-5,1,1,0
1443289865614127,0,1,3,1,3,-1,-1,-2
1443289865627135,-2,-6,-6,-4,-2,-1,-3,-1
1443289865627135,1,4,2,0,-1,0,7,1
1443289865629136,-5,-25,-16,-8,-3,-2,0,-2
1443289865629136,0,9,3,-2,4,0,1,0
1443289865650151,1,-17,-1,2,-4,0,-7,-3
1443289865650151,0,8,1,-2,-2,-5,-8,-2
1443289865651152,-1,11,5,5,3,7,14,4
1443289865651152,-1,-22,-6,-5,-5,-2,-3,-2
1443289865672166,-1,30,5,-2,-2,-1,0,-1
1443289865672166,3,-10,-7,-3,0,-1,-6,-2
1443289865674168,-5,-2,5,0,-1,-1,-4,-2
1443289865674168,-4,-8,-3,1,-1,0,-2,-3
1443289865687181,-1,2,1,1,2,-1,0,-2
1443289865687181,-1,-18,-7,-4,-2,0,1,1
1443289865689177,2,9,6,0,0,-2,-3,-2
1443289865689177,0,2,3,5,0,2,2,1
1443289865710209,3,7,-4,-2,-1,-3,0,-3
1443289865710209,-2,-13,-10,-2,1,1,3,0
1443289865711193,3,-4,-3,3,0,-1,-2,-1
1443289865711193,-3,12,3,-3,-2,-1,0,-1
1443289865732212,-3,-22,-1,0,-2,1,1,0
1443289865732212,-3,1,-5,0,8,-1,-9,-2
1443289865734209,2,5,-8,-5,-14,-4,0,0
1443289865734209,-4,-7,5,-1,-2,0,7,-1
1443289865747215,0,6,-7,-3,1,4,6,2
1443289865747215,-2,-9,1,3,-3,-1,2,0
1443289865749216,0,7,2,0,2,-2,-7,-2
1443289865749216,4,0,5,-2,4,-2,-6,-2
1443289865770230,-1,-6,0,1,-4,0,-4,-2
1443289865770230,6,20,5,0,0,1,0,1
1443289865771231,-4,-16,2,-1,4,-3,2,4
1443289865771231,5,6,-3,-2,-4,0,3,1
1443289865792246,-5,-17,-4,-5,8,0,-3,0
1443289865792246,3,6,1,-2,-21,0,-2,-3
1443289865794247,-4,8,2,1,7,4,6,0
1443289865794247,-2,-4,-10,0,-3,-6,3,1
1443289865807256,2,10,4,1,-3,-3,-2,1
1443289865807256,-2,-2,2,-2,2,0,-2,-2
1443289865813262,-2,-11,-5,-4,-2,-1,-6,0
1443289865813262,-5,0,-1,-2,-4,-1,-3,-3
1443289865830273,1,2,1,3,1,2,-3,-2
1443289865830273,1,3,1,0,3,-3,-1,-1
1443289865831274,-6,-6,-3,-1,-1,-5,-2,-2
1443289865831274,2,18,3,1,3,2,-1,0
1443289865852286,0,-20,0,-5,-6,-6,0,-2
1443289865852286,2,33,10,0,4,0,2,-1
1443289865854286,-2,-10,-9,1,-2,-3,-16,-6
1443289865854286,8,-17,-2,-3,-4,1,4,0
1443289865866295,-1,8,0,2,-2,1,7,1
1443289865866295,-5,-32,-5,0,3,-1,0,0
1443289865873300,4,61,22,-1,5,6,-8,-1
1443289865873300,-4,-10,-10,-3,-12,-10,-2,-3
1443289865890311,-2,-13,-10,-2,3,-5,-3,0
1443289865890311,-4,-9,3,0,0,-1,3,-2
1443289865891313,-10,-13,-6,-2,1,-1,1,-1
1443289865891313,4,10,5,1,0,3,-5,-1
1443289865912325,-2,5,4,1,-2,-2,2,-2
1443289865912325,-3,-17,-7,-3,-3,-2,-1,1
1443289865914327,3,28,0,-3,-6,-4,0,-2
1443289865914327,7,5,3,1,3,2,0,1
1443289865927335,-3,-14,0,3,2,0,2,1
1443289865927335,-1,9,-4,-3,-1,-4,-10,-3
1443289865933348,0,-19,-1,-3,-2,-4,5,0
1443289865933348,-3,-18,-1,-1,0,6,4,2
1443289865950351,-2,21,1,0,1,-1,-5,0
1443289865950351,0,-7,2,-1,-3,-3,-6,-2
1443289865951353,1,6,1,1,1,6,10,-2
1443289865951353,-10,-14,-7,0,-3,-11,-11,-1
1443289865972368,10,6,6,0,-1,-3,-3,0
1443289865972368,-1,6,-3,-1,0,1,0,-1
1443289865974369,-8,-57,-6,-1,0,0,3,1
1443289865974369,5,61,4,-1,2,3,-3,-4
1443289865986381,-2,8,1,1,-3,-2,-6,-3
1443289865986381,1,9,0,-2,-4,1,14,1
1443289865993384,1,-8,-3,-1,0,0,3,1
1443289865993384,-9,-19,0,-2,-3,-1,2,0
1443289866010393,6,-13,2,-2,9,1,-7,1
1443289866010393,0,20,-15,-2,-1,-4,3,-3
1443289866011391,-5,-18,-8,-1,-8,3,17,4
1443289866011391,-1,-8,-1,-2,-1,-9,-13,-2
1443289866032415,0,15,6,0,-2,1,-1,-1
1443289866032415,-1,-14,5,4,2,2,-3,0
1443289866034408,-1,3,-2,0,2,-3,-2,0
1443289866034408,-2,1,-2,0,0,1,-3,-2
1443289866046417,-2,0,-3,-1,-5,-1,-1,-2
1443289866046417,-2,-20,-2,-3,-1,-1,-4,0
1443289866053421,2,18,0,-1,-4,2,4,-3
1443289866053421,1,-14,-2,1,8,-6,-2,-1
1443289866070432,-2,32,1,2,-5,-1,-4,-1
1443289866070432,-4,-17,-4,-2,-3,0,-2,-2
1443289866071434,-1,2,2,3,8,1,1,3
1443289866071434,0,-14,-1,-4,-2,2,1,-3
1443289866092446,-2,-8,-7,-3,-1,4,8,-1
1443289866092446,2,6,7,2,1,-3,-5,1
1443289866098452,0,-5,-3,-1,-2,-2,-9,-1
1443289866098452,0,9,-2,-1,-2,1,1,-1
1443289866106457,-3,-7,1,-1,-3,-2,-1,1
1443289866106457,3,1,-7,-1,-1,1,3,-1
1443289866115460,-1,-1,0,-1,-1,-4,-2,1
1443289866115460,-5,-34,-2,1,0,2,-3,2
1443289866130472,9,70,8,-4,2,4,9,-2
1443289866130472,5,-2,-5,-3,-12,-1,-1,-1
1443289866132473,-5,-7,-6,-4,-1,-6,0,-4
1443289866132473,-5,-12,-2,0,-1,-2,1,0
1443289866152490,-4,-22,-5,0,-3,0,-2,-1
1443289866152490,-3,12,8,1,3,2,1,1
1443289866154487,1,0,-2,-4,-6,-1,-9,-2
1443289866154487,0,-4,5,8,0,5,5,-2
1443289866166496,0,-14,-4,-1,-1,0,4,0
1443289866166496,-1,19,-4,-2,-3,6,15,-2
1443289866175502,8,-6,2,2,-1,-11,-2,4
1443289866175502,-3,31,2,-7,-1,0,4,0
1443289866189510,-12,0,-3,-1,-1,-4,-7,1
1443289866189510,14,-24,2,0,3,1,-4,1
1443289866191514,8,16,-4,-1,-3,-1,-3,-5
1443289866191514,-13,-22,-3,1,4,2,1,-1
1443289866212526,-2,-44,-5,-2,-6,-1,-1,-4
1443289866212526,-13,39,7,-1,4,-1,-3,2
1443289866214535,8,-15,1,1,0,3,-4,0
1443289866214535,2,49,4,0,4,-1,-4,-2
1443289866226535,-6,-20,-9,-4,-12,-1,1,-3
1443289866226535,-3,-3,0,-3,-1,-6,-12,-7
1443289866235541,8,-12,-3,3,25,9,11,3
1443289866235541,4,1,-2,-3,-18,-3,2,3
1443289866249556,0,6,-3,-1,2,-2,-5,-2
1443289866249556,1,-9,0,-2,-3,-2,-4,0
1443289866251553,-12,-19,-3,1,-2,2,-3,-1
1443289866251553,-1,-1,-1,-6,0,1,-2,-1
1443289866272574,6,3,-1,3,5,-2,-5,-1
1443289866272574,-4,14,11,3,-1,3,5,-2
1443289866274569,0,1,-10,-2,-7,-4,-12,-4
1443289866274569,-1,-23,-9,-3,-4,-4,-2,0
1443289866286575,1,3,-1,-2,-2,-2,1,1
1443289866286575,-7,-38,-3,0,13,1,2,0
1443289866295582,-8,-14,-3,-3,-11,0,-6,0
1443289866295582,10,40,4,0,-1,-2,-3,0
1443289866309593,-3,-2,0,0,2,2,-4,-2
1443289866309593,6,24,2,3,-3,-9,2,0
1443289866311593,-3,-4,2,0,-4,-4,0,-2
1443289866311593,-1,-21,-4,1,-1,1,-4,-2
1443289866332606,-3,-7,-2,-6,0,1,2,0
1443289866332606,-1,-3,-3,5,-2,0,1,0
1443289866334607,-4,7,4,0,-3,-2,0,0
1443289866334607,-5,-16,-1,-1,1,0,0,-1
1443289866346618,5,42,4,2,-2,0,2,-2
1443289866346618,0,-14,-7,-5,-5,-1,-3,-3
1443289866354621,4,8,0,-3,-1,-5,-7,-1
1443289866354621,3,42,2,-1,3,8,10,1
1443289866369639,-2,-23,-2,-5,-3,-3,-3,-1
1443289866369639,0,-15,0,2,1,1,-2,-1
1443289866371631,-6,-1,1,1,-1,1,1,-2
1443289866371631,-4,-28,-2,1,0,-2,-1,1
1443289866392648,1,-2,0,-1,-1,-2,-2,0
1443289866392648,-2,8,-2,-5,-3,-1,-2,-1
1443289866393649,0,5,3,1,2,0,2,-2
1443289866393649,2,-21,-4,-2,0,-1,-1,-1
1443289866405659,-3,25,5,1,2,0,-6,0
1443289866405659,0,-10,-2,-3,-2,-2,-2,-2
1443289866414661,2,18,2,-1,0,-1,2,-1
1443289866414661,-1,-2,-3,-4,-9,-3,-7,-2
1443289866429672,-2,-15,-2,1,-2,-1,5,-1
1443289866429672,-4,-14,-1,0,1,-3,-5,1
1443289866431672,-6,-15,-3,0,-5,-1,3,2
1443289866431672,4,30,4,1,4,-2,-3,-3
1443289866452689,3,-11,-1,1,-1,-3,-2,0
1443289866452689,-4,19,-2,-6,-4,-3,-2,-2
1443289866453687,-4,5,-2,-1,3,0,-1,-2
1443289866453687,1,-16,-3,2,1,-4,-4,-1
1443289866465694,-1,-3,8,0,-1,1,1,2
1443289866465694,7,29,-2,-1,2,0,-1,-1
1443289866474703,9,-7,3,-2,-4,0,-3,0
1443289866474703,-6,-3,0,1,-2,-2,3,-2
1443289866489711,-8,-1,-2,6,5,0,5,0
1443289866489711,8,-13,0,-3,-3,2,1,2
1443289866491715,-7,-7,-3,-3,-2,1,-1,-1
1443289866491715,2,1,-1,-2,13,1,-5,-1
1443289866512727,6,6,-4,0,-9,-3,-1,0
1443289866512727,-8,-11,-2,-1,0,-2,-4,-2
1443289866514727,0,-5,-2,-1,-2,6,10,0
1443289866514727,-2,16,3,1,2,0,0,1
1443289866525735,9,16,-3,-5,-1,-3,-5,-6
1443289866525735,-3,-10,-2,-2,1,0,-2,1
1443289866535742,-1,11,3,-1,2,-2,-4,-1
1443289866535742,2,-17,-3,-1,-9,1,2,0
1443289866549757,-4,-12,-4,0,3,0,0,0
1443289866549757,-1,8,1,1,-3,0,0,0
1443289866551755,1,-4,-3,0,2,-2,-2,1
1443289866551755,-17,-35,-6,0,2,0,-4,1
1443289866572774,9,16,2,-3,-2,2,5,-3
1443289866572774,-2,1,-2,-1,1,0,-3,-2
1443289866573767,-4,4,0,-2,5,-1,-1,-2
1443289866573767,4,-12,-2,-1,-9,-1,1,0
1443289866594782,1,4,1,0,-4,-4,-2,0
1443289866594782,-4,-2,2,0,0,1,5,0
1443289866596782,3,-1,0,-3,-3,-3,-3,-3
1443289866596782,2,-1,-2,-1,-2,-2,2,-1
1443289866609793,-8,9,-2,-3,2,-2,-4,-1
1443289866609793,4,4,-1,-1,-2,-3,-8,-2
1443289866611792,-1,-8,1,2,-2,1,9,5
1443289866611792,9,37,9,-6,2,-1,-3,-2
1443289866632807,-12,-32,-11,2,0,1,-2,0
1443289866632807,6,-4,0,4,3,0,-4,1
1443289866633808,-2,-3,-1,-1,-4,-3,-5,-2
1443289866633808,-8,18,2,0,-3,1,2,0
1443289866654825,6,3,-2,-5,0,-3,-4,-2
1443289866654825,-8,-8,-1,0,-2,0,1,-2
1443289866656836,1,-10,-4,-1,-3,-3,-3,-2
1443289866656836,3,-1,-2,-5,-4,1,3,0
1443289866669840,-5,-22,1,2,1,-1,-1,0
1443289866669840,-1,12,-2,3,0,2,2,1
1443289866671833,3,18,2,-1,-2,-1,-2,-3
1443289866671833,-3,-7,-3,2,1,-3,-2,-1
1443289866692849,1,3,2,-2,-2,1,-1,0
1443289866692849,2,-14,-3,-2,-1,-1,1,0
1443289866693850,-7,-5,-3,-2,0,1,-2,0
1443289866693850,-2,4,0,-3,-1,0,-1,-1
1443289866714863,6,0,2,1,-1,-1,-2,-1
1443289866714863,3,9,0,-3,-2,0,4,0
1443289866716862,2,-13,1,-1,-1,0,0,0
1443289866716862,-3,2,-8,1,1,-1,4,-1
1443289866728869,5,-2,1,-2,0,-3,-8,-1
1443289866728869,-9,-6,-1,-2,-6,5,10,-1
1443289866735876,2,7,2,-2,-1,-2,-3,1
1443289866735876,3,-9,0,5,1,1,0,1
1443289866752894,-5,0,-2,1,0,-1,0,0
1443289866752894,2,-6,-4,-4,-2,-3,-6,-2
1443289866753888,-3,17,1,2,0,-1,-2,-2
1443289866753888,-1,-6,1,-2,-1,-1,-3,-1
1443289866774901,-4,-7,-1,0,-1,1,-2,1
1443289866774901,0,2,0,0,0,0,-3,0
1443289866776902,0,-2,-5,-3,-1,0,0,-2
1443289866776902,-1,11,0,-2,-2,-4,-2,-3
1443289866788911,2,-5,3,-2,0,-1,3,-1
1443289866788911,-6,-14,-4,0,2,-3,-1,-1
1443289866795924,0,24,8,3,1,-1,-1,-2
1443289866795924,1,-26,-14,-5,-3,0,-2,-2
1443289866812928,0,17,3,-1,0,0,1,-2
1443289866812928,-2,-1,4,2,1,-2,-1,0
1443289866813927,0,1,0,3,0,-1,-2,1
1443289866813927,-2,-13,1,1,0,-1,-1,-1
1443289866834940,-4,-1,-4,-2,-3,-1,2,0
1443289866834940,2,3,-1,-5,-1,0,-1,-1
1443289866836943,5,-13,-1,1,-3,-2,0,-2
1443289866836943,-8,-4,0,0,1,0,-2,0
1443289866849958,2,5,-5,-6,-4,-1,2,-3
1443289866849958,-2,-5,0,-3,-2,-2,0,-2
1443289866855957,3,4,-2,-2,1,-1,1,0
1443289866855957,4,-7,2,7,1,0,-2,-1
1443289866872973,-1,-1,-3,0,8,1,-1,0
1443289866872973,-4,-2,-3,0,-8,-4,-5,-2
1443289866873968,0,-20,-4,-7,-3,1,4,-1
1443289866873968,1,43,6,-1,0,0,0,1
1443289866894982,-2,-2,1,2,0,1,1,0
1443289866894982,4,4,0,1,2,-2,-4,-2
1443289866896983,-5,2,0,0,-1,-1,-3,0
1443289866896983,-1,0,3,0,1,0,2,0
1443289866908993,-9,-11,-5,-2,-4,-1,0,-1
1443289866908993,15,21,0,-3,-1,-1,0,-3
1443289866915999,-6,-7,-1,2,-1,1,-3,0
1443289866915999,-1,-7,2,-1,0,0,0,0
1443289866933011,-5,-1,2,0,-1,-1,-5,1
1443289866933011,-1,16,5,1,2,0,0,0
1443289866934009,6,-2,-9,-3,-1,0,0,-2
1443289866934009,-3,-18,-4,-5,0,-4,-5,-2
1443289866955023,5,-23,-5,0,-2,1,4,4
1443289866955023,-6,26,0,-2,-1,-1,-4,-2
1443289866957022,-6,-2,-1,0,-2,0,-3,0
1443289866957022,-5,-29,-7,-3,-3,0,1,0
1443289866969033,3,30,6,1,-1,-3,-2,-6
1443289866969033,-1,-10,2,3,-1,0,1,1
1443289866976038,-2,-8,-2,-3,-2,-2,-1,-1
1443289866976038,2,19,-2,-2,-2,-2,-1,-3
1443289866993049,-2,-9,-5,-3,-1,-1,-1,-1
1443289866993049,1,-6,0,-3,-1,0,1,0
1443289866995048,-8,-9,-3,-1,5,-2,-3,-1
1443289866995048,8,18,1,0,-3,0,-1,0
1443289867015062,7,20,3,-1,-3,-3,-5,-2
1443289867015062,-9,-23,-1,3,-1,4,8,1
1443289867017064,-3,-10,-4,-2,-2,-4,-2,-3
1443289867017064,-3,7,2,0,0,0,2,-2
1443289867029071,-2,-16,-6,-3,-2,0,-5,0
1443289867029071,2,-2,-3,-1,0,-1,-4,0
1443289867036075,-1,9,4,4,-1,1,3,0
1443289867036075,3,4,0,-2,1,-3,-3,-3
1443289867053090,-4,-15,-2,-1,-2,0,1,-1
1443289867053090,-3,-16,-8,-7,-2,0,-2,-1
1443289867054087,0,8,3,3,0,2,-1,0
1443289867054087,1,15,5,1,-2,-3,-1,-2
1443289867075101,-4,-33,-8,1,0,0,-3,1
1443289867075101,3,23,2,3,1,-4,-5,-3
1443289867076102,-4,-2,0,-4,-1,-2,-2,-1
1443289867076102,0,-12,-5,1,-1,0,0,1
1443289867089110,0,12,3,-2,-1,0,0,0
1443289867089110,-4,-9,-1,-3,-3,-1,-4,-1
1443289867097117,4,9,1,-1,-2,-1,-2,0
1443289867097117,-2,-8,-6,-4,-1,0,0,1
1443289867112127,-11,11,2,2,7,1,0,-3
1443289867112127,1,-23,0,0,-8,-4,2,0
1443289867114127,0,28,-1,-2,-3,-1,-2,-3
1443289867114127,3,-6,2,0,-2,0,2,1
1443289867135145,-4,-3,-2,-5,-2,0,-4,-1
1443289867135145,5,26,-2,0,1,1,-2,-2
1443289867136141,0,-12,-6,-3,-1,0,-1,-2
1443289867136141,3,6,1,0,-2,-1,-3,-3
1443289867149150,-4,1,0,-1,-7,-5,-4,-4
1443289867149150,-6,-11,0,3,6,0,3,-1
1443289867163162,0,-13,-1,-2,-1,-1,4,2
1443289867163162,0,11,1,0,1,0,-3,-2
1443289867172175,-1,-4,-1,-1,-1,0,2,-1
1443289867172175,4,1,-1,-3,-2,-2,-7,-1
1443289867174167,5,6,1,1,1,-1,-3,-1
1443289867174167,-11,-22,-4,-2,0,2,6,1
1443289867195182,-7,-5,-1,-2,-2,-3,-1,-2
1443289867195182,-4,-11,-3,-1,1,1,3,0
1443289867196183,-1,14,2,-1,-2,0,1,-1
1443289867196183,5,-6,-1,0,-1,-2,-4,-1
1443289867208191,4,38,2,-1,-1,0,3,2
1443289867208191,-10,-30,-2,0,2,1,-3,0
1443289867217204,3,-7,1,3,-1,1,-2,-1
1443289867217204,-2,2,0,1,-1,-1,-2,-1
1443289867232206,2,-16,-3,0,-2,0,2,0
1443289867232206,1,7,1,-1,0,1,0,2
1443289867234206,2,23,2,-2,-1,-1,-2,-2
1443289867234206,-2,2,0,-3,-1,-2,-1,-3
1443289867255227,2,-10,-2,2,1,0,-1,-1
1443289867255227,-2,7,0,-1,-3,-3,1,-2
1443289867256223,-4,-18,-2,-1,-2,-1,4,1
1443289867256223,-4,-8,-2,-2,-1,-1,-6,-1
1443289867269233,3,0,-3,-1,-2,6,10,0
1443289867269233,-1,-6,0,0,-1,-2,-2,-2
1443289867277236,2,19,0,-2,0,-3,2,0
1443289867277236,-1,18,5,-1,-4,-3,-3,-1
1443289867292248,5,-7,-10,-1,-3,-3,-7,0
1443289867292248,-19,-58,-7,-2,-1,2,1,-2
1443289867294248,15,57,2,2,1,-2,-3,-1
1443289867294248,-10,-14,1,2,0,0,1,-1
1443289867315261,-1,-5,1,1,-1,0,-2,-1
1443289867315261,6,4,0,-4,-1,-1,3,1
1443289867321272,-9,-14,-4,-2,-2,-2,-3,-1
1443289867321272,-4,-17,-6,-3,-1,0,2,-2
1443289867328270,9,19,3,-2,-3,-3,-3,0
1443289867328270,-10,-5,-1,-2,-3,-2,-3,0
1443289867337280,-8,-13,-1,2,1,-1,0,-3
1443289867337280,8,-3,-2,-1,-1,1,-3,0
1443289867352287,-1,2,0,-3,0,-1,-3,-3
1443289867352287,9,21,2,4,-1,0,0,1
1443289867354286,-8,-31,-5,-3,-2,-1,-2,-1
1443289867354286,-1,13,0,-3,-1,0,-1,0
1443289867375303,-3,-18,2,0,0,0,1,0
1443289867375303,3,49,-1,-1,0,-2,-3,-1
1443289867376303,2,-19,-1,2,-1,-1,-3,-1
1443289867376303,5,3,-3,-2,-2,-1,1,1
1443289867388312,-1,1,-1,-2,0,-1,-1,-1
1443289867388312,-1,-3,3,-1,-2,-1,-2,-2
1443289867397316,-6,-15,-4,-4,-2,-2,-3,-2
1443289867397316,-1,11,0,0,-1,1,-1,1
1443289867412329,-7,-15,0,3,1,0,0,1
1443289867412329,6,2,-1,-2,1,-1,-2,-1
1443289867414329,-3,-2,-2,-4,-2,-1,-3,0
1443289867414329,-2,-10,-1,1,0,0,2,-1
1443289867435341,-2,28,1,0,0,-4,-2,-1
1443289867435341,2,-9,-2,-2,-2,1,1,-2
1443289867436342,3,14,2,0,0,-2,-1,0
1443289867436342,-4,-14,-8,-5,-2,-1,0,0
1443289867448353,1,-1,8,6,2,1,0,-1
1443289867448353,-10,-43,-12,-5,-3,0,-1,0
1443289867457452,2,22,5,-3,0,0,-1,-2
1443289867457452,-1,7,9,13,3,-1,-1,-1
1443289867472370,-1,-12,-10,-6,-4,-3,-1,1
1443289867472370,0,12,-1,-2,-2,-3,-2,-2
1443289867474367,-6,-19,-3,-3,-2,1,-1,0
1443289867474367,3,-13,-3,-6,-2,0,0,-1
1443289867495382,-2,28,5,0,0,-1,-2,-1
1443289867495382,7,2,1,-1,-1,1,1,-1
1443289867496383,-2,-28,-4,3,1,1,1,0
1443289867496383,3,43,7,-1,-2,-3,-2,-5
1443289867525402,-3,-24,-3,-1,1,-2,0,0
1443289867525402,0,0,-2,-1,-1,-1,-2,-1
1443289867526403,-1,7,1,-2,-1,-2,1,-1
1443289867526403,-6,-17,-3,1,0,0,2,-1
1443289867532410,2,0,-1,-2,-3,-2,-2,-1
1443289867532410,-4,1,-2,-3,-1,-3,-2,-1
1443289867534408,3,15,3,2,0,1,2,2
1443289867534408,-5,0,-1,-2,-2,-2,-1,-2
1443289867555422,-3,-2,-1,1,-1,-1,1,-3
1443289867555422,5,22,-1,-2,-2,-3,-1,0
1443289867556425,-2,-5,2,4,0,1,-1,-1
1443289867556425,-1,-8,-7,-5,-1,0,1,1
1443289867577437,0,0,-2,-4,-1,1,0,-2
1443289867577437,2,-1,2,5,1,0,0,-1
1443289867579438,-1,-16,-5,1,-2,1,-1,-2
1443289867579438,5,24,2,-3,-1,1,-1,1
1443289867592446,4,-5,-5,-2,-3,-1,-2,0
1443289867592446,-12,-1,12,4,1,-1,1,-4
1443289867594447,-1,-2,-2,-5,-1,-3,-3,-2
1443289867594447,-2,-9,-1,1,0,-1,-1,-2
1443289867615578,4,19,8,1,1,1,1,0
1443289867615578,-1,-12,-15,-4,0,0,-1,1
1443289867616465,-2,8,-3,-2,-3,-2,0,-3
1443289867616465,-2,-9,-1,0,-1,-1,0,0
1443289867637478,-4,-14,1,4,0,1,-1,0
1443289867637478,12,31,8,-1,-3,0,-2,-1
1443289867639481,-9,-29,-2,-1,2,-1,0,-2
1443289867639481,-13,-10,-9,-2,-3,-2,-4,-1
1443289867652489,13,-16,-3,2,-1,-2,-1,0
1443289867652489,5,30,1,-6,-1,-1,-1,-2
1443289867654488,-3,3,-3,-1,-1,2,-2,-1
1443289867654488,5,-15,-10,3,1,0,1,-2
1443289867674503,-6,22,11,0,0,-1,0,-4
1443289867674503,-3,-25,-2,0,0,-1,1,2
1443289867676502,5,13,3,1,-1,0,0,0
1443289867676502,-9,-29,-2,-3,-2,-2,-3,-4
1443289867697516,3,6,-6,-1,-1,-3,-2,-2
1443289867697516,-5,-18,-6,-3,-2,-1,-2,-1
1443289867699517,7,16,1,0,-1,-2,-2,-1
1443289867699517,2,-5,1,-1,-3,-3,-3,-2
1443289867711534,-1,18,-5,-2,-1,0,0,-1
1443289867711534,-3,-11,-3,-3,-2,0,1,0
1443289867718533,-9,-23,-7,-1,-2,-2,0,-1
1443289867718533,15,32,6,0,2,0,5,3
1443289867735589,-10,-25,1,-1,-1,-1,-2,0
1443289867735589,-5,-11,-2,2,1,2,1,0
1443289867736544,4,29,0,-1,-3,-2,-3,0
1443289867736544,5,10,0,-2,-1,1,-3,0
1443289867757558,-11,-13,-4,-3,-1,0,0,-1
1443289867757558,5,-17,-1,5,2,0,0,0
1443289867759557,-5,15,6,-4,-5,-3,-7,-5
1443289867759557,3,-4,0,1,1,1,1,1
1443289867771572,6,13,-3,-2,0,-2,-2,-2
1443289867771572,-4,-4,0,1,1,-1,0,1
1443289867778571,-7,-17,-6,-5,-1,-2,-1,-4
1443289867778571,6,20,1,-1,0,-1,0,-1
1443289867794583,-7,-18,-6,-4,0,-3,0,-4
1443289867794583,3,25,7,0,-2,-4,-2,-3
1443289867796584,6,-22,3,1,0,0,0,2
1443289867796584,-15,-20,-6,-2,0,0,-3,-1
1443289867817605,4,0,-5,-4,-1,0,-2,-2
1443289867817605,-3,-1,-2,-1,-2,0,-2,-1
1443289867819599,3,14,0,2,0,-2,1,0
1443289867819599,-3,-6,0,0,-2,-2,-2,0
1443289867831606,6,14,1,-1,0,0,-3,-1
1443289867831606,-5,-13,-2,-1,-2,-1,0,0
1443289867838613,-2,2,-2,-2,-1,1,0,-1
1443289867838613,-1,-4,1,-3,-1,-1,0,0
1443289867854623,0,4,4,2,1,-3,0,-1
1443289867854623,-2,-1,0,-4,0,-1,0,-2
1443289867856623,8,-3,-4,5,1,0,1,1
1443289867856623,-12,-8,-2,-1,-4,-2,-6,-4
1443289867877640,5,-6,-2,-1,-1,1,5,2
1443289867877640,2,-4,-1,-1,-2,1,1,0
1443289867879638,0,4,1,-2,-1,2,0,2
1443289867879638,9,8,0,1,0,0,1,1
1443289867891646,-7,-12,-6,-2,-2,-3,-3,-1
1443289867891646,0,1,1,0,-2,-1,-3,0
1443289867898652,2,18,-1,1,1,-2,0,-1
1443289867898652,-4,-4,1,-1,0,0,1,-1
1443289867914662,-2,0,-1,1,0,0,-1,0
1443289867914662,0,2,0,-1,0,-2,0,-2
1443289867916663,-6,-21,-4,-1,-1,0,-1,0
1443289867916663,2,-4,0,-3,-2,-1,-1,-1
1443289867937682,-1,40,4,-1,0,-1,1,-1
1443289867937682,-7,4,-1,-1,-2,-1,-1,-1
1443289867939678,7,-4,-1,0,0,0,-3,-1
1443289867939678,2,-4,-3,-1,-1,-3,-1,-1
1443289867951686,-2,-14,-1,-2,-2,-1,-1,0
1443289867951686,-2,6,0,2,0,0,-2,0
1443289867958691,-3,6,0,-1,0,0,0,2
1443289867958691,-4,-8,-1,-3,-1,1,1,-1
1443289867974708,-1,-3,2,2,-2,1,-2,1
1443289867974708,2,3,-1,-3,0,-1,0,-1
1443289867976705,1,-6,-2,-2,-2,-3,1,-1
1443289867976705,-3,5,-3,-2,0,0,0,0
1443289867997717,-2,-21,-4,1,-1,1,0,0
1443289867997717,0,18,2,2,1,0,0,-2
1443289867998717,-1,5,0,1,-3,-2,-2,-2
1443289867998717,-2,0,-1,-4,-2,0,-2,-1
1443289868011726,1,-2,-5,-4,-2,0,-2,0
1443289868011726,-1,-3,3,1,-1,0,-1,-2
1443289868020732,-2,-7,0,-1,0,-1,0,0
1443289868020732,4,12,4,-1,-1,-1,0,-1
1443289868034742,-8,-38,-5,3,-1,-2,0,-2
1443289868034742,-4,36,1,-3,-2,0,-1,-2
1443289868036743,-4,5,-2,-2,-2,-1,-7,-1
1443289868036743,-4,-8,1,0,-1,0,2,0
1443289868057761,-3,0,-1,-5,-2,-1,2,1
1443289868057761,8,-12,-4,2,2,1,1,1
1443289868058758,-5,-9,-1,0,-1,0,1,0
1443289868058758,3,16,0,0,0,-2,-4,-3
1443289868071814,0,6,2,1,-2,-1,-3,-1
1443289868071814,-3,-20,-5,-2,-2,0,1,1
1443289868079772,3,16,1,-2,1,0,3,-1
1443289868079772,-4,-8,-2,2,0,3,-2,1
1443289868094785,0,10,2,0,1,1,0,-1
1443289868094785,6,0,1,-2,-3,-1,-2,0
1443289868100785,-1,-20,-3,-1,-2,0,-1,1
1443289868100785,-3,4,-7,-1,-1,-3,-1,-1
1443289868117799,5,50,10,2,-1,0,-1,-3
1443289868117799,-7,-17,-4,1,0,-1,3,-1
1443289868118799,-2,-7,-7,-6,-1,-2,-1,-2
1443289868118799,2,-4,1,0,0,-2,-1,-1
1443289868139814,-3,-16,-2,-1,-3,-1,-3,2
1443289868139814,-7,-2,-3,-3,1,-1,-2,-2
1443289868140815,4,-3,3,2,-3,-1,0,1
1443289868140815,-5,1,-5,-2,-3,-2,0,0
1443289868154826,3,6,2,-3,-1,-2,-3,0
1443289868154826,1,1,-2,-1,-2,-2,-3,-1
1443289868154826,-4,-5,-2,-2,-1,-1,-1,-2
1443289868154826,3,5,3,0,1,1,1,1
1443289868176838,0,-4,-2,0,-1,-1,0,-2
1443289868176838,-3,-7,-1,-1,-1,0,-1,-1
1443289868177839,0,8,-3,-3,-2,-1,-2,-3
1443289868177839,-3,-10,0,0,-1,-1,1,-1
1443289868198853,2,-9,0,1,1,0,2,3
1443289868198853,-1,13,0,-1,-1,-2,-1,0
1443289868199853,0,-8,0,2,1,0,0,0
1443289868199853,-8,-4,2,-2,-2,-3,-2,-4
1443289868214862,3,-9,-7,-4,-1,-1,-5,0
1443289868214862,8,22,0,0,-2,-2,-3,-1
1443289868214862,-8,-19,-1,-1,0,-1,-1,-1
1443289868214862,1,14,1,2,-1,0,-2,-1
1443289868236876,-1,0,-2,-3,0,-1,0,-1
1443289868236876,-7,-21,-3,1,1,-1,-2,0
1443289868237879,3,9,-4,-4,-2,-3,-2,-3
1443289868237879,-2,-18,2,1,1,0,0,0
1443289868258893,-5,8,1,-1,-1,-2,-2,-3
1443289868258893,4,15,1,-2,-1,-1,-4,-1
1443289868259894,1,-2,1,-1,0,1,0,-1
1443289868259894,2,-3,-2,0,-1,-1,-1,-2
1443289868274902,-1,-5,-3,0,-1,0,1,-1
1443289868274902,-8,-3,-1,0,-3,-1,-1,-3
1443289868274902,4,7,1,-1,-2,-1,-2,0
1443289868274902,1,-2,-5,-3,0,1,0,1
1443289868296919,-7,-10,2,4,2,1,3,-1
1443289868296919,10,9,1,-3,-4,-3,-2,-2
1443289868297918,-5,-9,1,2,1,-1,-1,1
1443289868297918,2,6,-4,-3,-2,-1,-2,-1
1443289868318932,-2,-11,-4,-1,1,0,0,0
1443289868318932,-6,5,4,1,0,-1,-1,-1
1443289868319933,2,13,-1,-4,-2,0,0,0
1443289868319933,-2,-3,-1,-1,-2,-2,-2,-1
1443289868333941,0,-9,-2,0,-1,0,-1,-2
1443289868333941,0,-1,-2,-1,-1,-1,-2,-1
1443289868334942,-1,4,-2,2,-1,-1,1,0
1443289868334942,0,6,0,-1,1,-2,0,0
1443289868356955,-3,-12,-1,1,-1,0,0,-1
1443289868356955,0,-4,-3,0,0,-1,0,0
1443289868357956,1,-6,-2,-3,0,0,0,-1
1443289868357956,-4,-9,-1,-5,-3,-2,-2,-1
1443289868378972,4,24,3,-1,-1,-2,-5,-2
1443289868378972,9,1,-6,-2,-2,-1,3,0
1443289868379972,-4,-4,3,0,1,0,0,0
1443289868379972,-3,0,0,0,0,1,1,2
1443289868393981,-5,-18,-2,3,0,0,-2,-2
1443289868393981,-5,3,2,-1,1,0,-3,0
1443289868394985,0,0,-2,-2,0,-2,0,-2
1443289868394985,3,3,-1,-4,-2,1,0,-1
1443289868416997,-1,5,-1,-2,-1,-1,0,0
1443289868416997,-6,2,-2,0,-2,-1,-1,-3
1443289868417998,-2,-3,0,0,-3,-3,-2,-2
1443289868417998,4,15,9,4,3,1,0,0
1443289868439016,0,7,-2,-2,-3,-2,0,0
1443289868439016,-2,-14,-3,-1,0,1,0,0
1443289868440011,4,12,5,1,-1,0,-1,0
1443289868440011,-10,-15,-3,0,-1,-1,0,-1
1443289868454030,0,-3,-2,-2,-3,-2,0,-1
1443289868454030,0,-5,-1,-3,-2,0,-2,0
1443289868455024,0,-8,-6,3,1,1,0,0
1443289868455024,3,-1,-1,2,0,-1,2,1
1443289868477039,-1,4,1,0,0,0,3,0
1443289868477039,-2,2,2,1,-1,-1,-2,0
1443289868478039,-1,11,3,-1,-2,-2,-1,-2
1443289868478039,0,-4,2,1,-1,0,-3,-1
1443289868499060,2,1,-10,-1,-1,-1,-1,-1
1443289868499060,-5,-23,-1,1,0,-1,0,-2
1443289868500053,8,26,3,-1,-1,-1,0,-1
1443289868500053,0,3,-2,-1,-3,-2,-1,-2
1443289868514063,-9,-10,3,0,-1,-1,-1,-1
1443289868514063,2,-6,-2,0,0,0,-1,2
1443289868515061,-6,-12,-6,-1,-2,0,-1,-2
1443289868515061,2,8,0,-1,0,0,-1,1
1443289868537084,4,2,-1,-4,-2,-2,-2,-3
1443289868537084,3,0,-1,5,0,1,0,-2
1443289868538080,-5,-4,-1,-1,0,-1,-1,-1
1443289868538080,-1,-2,1,4,1,0,-1,0
1443289868559091,-1,-9,-3,-4,1,1,1,-1
1443289868559091,-1,3,0,-2,-2,-2,0,0
1443289868560091,-2,-12,1,-3,-2,-1,-2,0
1443289868560091,-3,6,1,0,-1,-1,-2,-1
1443289868574101,1,7,1,4,0,1,-2,-2
1443289868574101,0,-4,1,-1,-1,0,-1,-2
1443289868575101,-7,-4,-4,-5,-1,-2,-3,-3
1443289868575101,0,-19,-1,2,-1,-2,0,0
1443289868597120,1,3,-4,-3,-2,-2,-1,1
1443289868597120,3,1,2,1,0,-2,-1,-2
1443289868598118,-3,0,1,1,0,-1,1,1
1443289868598118,3,16,-7,-4,-2,-1,-1,-1
1443289868619131,-6,-13,-2,0,0,-1,0,0
1443289868619131,-1,-7,-2,-2,-1,-1,-1,1
1443289868620132,1,0,-1,0,0,-3,-1,-2
1443289868620132,-1,-4,-2,-1,0,-2,-3,-3
1443289868634141,3,3,5,4,0,0,-6,-1
1443289868634141,-6,-1,-3,-1,0,0,2,-1
1443289868642146,-1,-5,-3,-3,-3,1,1,-1
1443289868642146,3,-1,-5,-4,0,-2,1,1
1443289868657172,0,6,3,-3,-1,1,2,0
1443289868657172,0,2,1,8,-1,-2,-3,1
1443289868658156,-1,-31,-3,1,1,-2,0,-1
1443289868658156,-3,26,2,-2,-2,0,-1,-2
1443289868679172,-6,-4,-4,-7,-6,-3,-1,-4
1443289868679172,5,6,-4,-6,-1,-1,-1,0
1443289868680173,-4,-4,2,2,1,0,-2,1
1443289868680173,2,-17,-4,-3,-1,-1,-1,-1
1443289868694183,4,12,3,0,0,-2,0,2
1443289868694183,-3,3,-4,-5,-1,-1,-1,-3
1443289868695182,0,8,-4,-2,-3,0,-1,0
1443289868695182,0,-3,5,0,1,1,-1,0
1443289868717196,-2,-16,-1,2,-1,1,1,0
1443289868717196,1,14,1,-1,0,1,1,0
1443289868717196,-6,-16,-2,0,1,-1,-1,0
1443289868717196,9,18,2,1,-1,-1,3,0
1443289868739211,-2,-5,-3,0,1,-1,-1,-1
1443289868739211,-3,-4,0,2,1,-2,2,-2
1443289868740212,5,4,-3,-3,-2,-2,-1,-2
1443289868740212,-11,-10,-4,-2,-2,-3,-3,0
1443289868762227,6,-1,-1,3,2,-1,-3,1
1443289868762227,-2,-1,2,-3,-2,-1,-2,-4
1443289868763226,0,10,-3,1,1,0,-1,-1
1443289868763226,2,-11,2,1,0,-1,-2,-2
1443289868777238,-3,-6,-1,0,-2,-1,-2,0
1443289868777238,-1,6,-1,-2,0,0,-3,-1
1443289868777238,-6,-16,-5,0,-1,0,0,0
1443289868777238,-6,-6,-4,-1,-1,-2,-1,-1
1443289868799251,-1,-7,-2,-4,0,0,-2,0
1443289868799251,12,3,4,-1,0,1,0,1
1443289868800252,-7,-1,2,4,-1,-1,-3,-4
1443289868800252,-1,4,-4,1,1,0,-1,-1
1443289868814264,0,0,5,4,0,-1,0,1
1443289868814264,2,-10,-5,-6,-3,-1,-1,-1
1443289868815264,7,28,4,-4,-3,-2,1,0
1443289868815264,-3,-15,0,0,0,0,-2,-2
1443289868837281,-3,9,-2,-1,0,-2,-1,-1
1443289868837281,-8,-8,1,-2,-1,-2,-1,0
1443289868837281,5,-6,-2,-2,0,0,-2,1
1443289868837281,-1,-4,-2,-1,-1,-1,0,-1
1443289868859301,-2,21,-3,-3,1,1,0,0
1443289868859301,0,-4,0,4,1,0,-1,0
1443289868860296,0,0,-5,-3,-1,-1,0,-1
1443289868860296,-2,-10,-1,-3,-2,1,0,-1
1443289868873302,1,-1,-4,-4,-2,-1,-1,0
1443289868873302,-4,0,0,4,0,-2,-2,1
1443289868882308,-4,-12,2,2,1,0,-1,1
1443289868882308,9,21,3,1,-1,0,-1,0
1443289868897319,-3,1,-5,-3,-1,-3,-2,-2
1443289868897319,-3,1,-3,-1,-1,-1,-1,1
1443289868897319,4,12,-1,-1,-2,-2,-2,-2
1443289868897319,-17,-20,2,0,1,0,2,-2
1443289868919332,7,4,2,1,0,2,4,0
1443289868919332,-1,4,1,-3,-2,-3,-2,-1
1443289868920333,2,3,0,-1,1,0,-2,1
1443289868920333,-2,-6,-3,2,1,-1,-4,0
1443289868933341,0,8,-3,-3,-1,0,-2,-2
1443289868933341,-9,-44,-5,-1,0,2,3,0
1443289868942346,10,38,2,-3,-3,-2,-2,-2
1443289868942346,4,-2,-4,-3,-1,-1,0,2
1443289868957440,-7,-3,-1,-4,-1,-1,-1,-2
1443289868957440,-1,-6,1,4,0,0,-2,-3
1443289868957440,-5,-8,0,-1,0,1,1,0
1443289868957440,1,2,0,0,0,0,0,2
1443289868979374,5,-8,1,0,0,0,-1,2
1443289868979374,-2,15,-1,-2,0,-1,-1,-1
1443289868980373,-2,-5,3,0,0,-1,0,0
1443289868980373,-3,-8,0,-1,-1,0,-1,-1
1443289868993383,2,11,-1,-1,-1,-2,-2,-1
1443289868993383,4,8,-3,-3,-3,0,-1,0
1443289869010394,-1,-8,-2,3,-1,-1,0,-1
1443289869010394,-1,-4,-2,-1,-3,-1,-2,-2
1443289869017399,-2,0,-1,1,-1,0,0,-1
1443289869017399,-6,-11,1,-4,-2,0,-1,-2
1443289869017399,1,5,2,-1,0,1,0,-1
1443289869017399,1,-4,-4,-1,0,-1,-1,-1
1443289869039412,0,-4,1,1,0,0,-1,0
1443289869039412,2,6,-1,-4,-2,-2,-2,-1
1443289869040412,-1,-15,-3,0,-1,1,2,0
1443289869040412,-1,2,1,-2,-1,2,2,0
1443289869061428,-6,2,-2,1,0,1,-1,-2
1443289869061428,13,0,-3,-4,-1,-1,-2,-2
1443289869062429,-6,0,-1,-1,0,0,-2,-1
1443289869062429,0,-2,-3,0,-2,-3,-1,-2
1443289869076436,-9,-17,-2,0,-3,-1,0,-2
1443289869076436,5,15,2,0,0,1,0,1
1443289869077439,0,0,-3,-5,-3,0,-2,-2
1443289869077439,2,1,0,-1,1,-1,-1,-1
1443289869099451,-1,-15,3,-1,0,-1,1,0
1443289869099451,2,29,4,3,-1,-3,0,0
1443289869100452,-7,-29,-7,-2,-1,-2,-1,-2
1443289869100452,-3,-8,-2,-6,0,0,-1,1
1443289869113463,3,27,1,5,-1,-3,-1,-2
1443289869113463,-1,4,-1,-2,0,-2,2,-1
1443289869121467,6,7,1,3,1,1,0,-1
1443289869121467,-7,-5,-6,-2,-1,-3,-2,-2
1443289869136491,7,-7,5,-1,0,1,-2,2
1443289869136491,-7,-6,-4,-1,0,-1,-1,-3
1443289869137476,-7,-2,-1,-2,-1,-1,-2,-1
1443289869137476,-3,7,1,2,1,-1,-1,-2
1443289869159492,4,3,0,3,-1,-1,-2,-3
1443289869159492,-5,-15,-4,-1,-2,-1,-2,0
1443289869160493,-1,7,3,-2,-1,0,-1,1
1443289869160493,1,7,-2,-2,-2,-1,0,-1
1443289869173502,0,0,1,-2,0,-2,0,-2
1443289869173502,5,1,2,3,1,0,-1,2
1443289869181506,-5,-17,-7,-2,0,-2,-3,-2
1443289869181506,7,18,1,2,-1,-1,0,1
1443289869197518,-8,-11,-5,-2,-1,-1,0,-1
1443289869197518,-7,-3,0,-1,0,-1,-1,-2
1443289869198520,-7,-10,5,2,0,0,0,0
1443289869198520,10,7,0,-2,-3,-3,-3,-3
1443289869219532,3,-5,-2,-1,1,2,-2,1
1443289869219532,-4,-5,-2,-2,-1,0,-1,-2
1443289869220533,1,-9,-3,3,-2,-2,0,-1
1443289869220533,-5,14,3,-5,0,0,1,-1
1443289869233541,0,6,-3,1,1,2,4,1
1443289869233541,-2,-4,3,1,1,0,1,0
1443289869241548,3,12,-1,-2,0,-1,-4,-2
1443289869241548,-5,-26,-3,0,-2,0,-1,-2
1443289869256558,-3,5,-4,-5,-4,-3,-4,-2
1443289869256558,-4,-4,-7,-3,0,-1,0,-1
1443289869257557,0,9,3,0,1,-2,0,1
1443289869257557,3,-13,-2,-2,-1,-1,-1,-1
1443289869279575,0,1,0,-2,0,-1,-1,0
1443289869279575,1,-3,-2,0,2,0,-1,-1
1443289869280573,3,5,-1,-4,-1,-1,-1,-3
1443289869280573,-4,-3,1,0,0,0,-1,0
1443289869293583,-5,-21,-2,-2,0,-2,0,-1
1443289869293583,-2,21,0,-2,-4,-2,-2,-2
1443289869301590,9,13,-1,-1,0,0,0,0
1443289869301590,-7,-12,-3,3,1,0,1,1
1443289869316597,1,-1,-2,1,-1,-1,-3,-2
1443289869316597,-6,-27,-2,-1,-2,-2,-2,-1
1443289869317598,6,29,0,-1,-2,0,0,0
1443289869317598,-7,-5,-1,2,-2,0,-2,-2
1443289869339613,6,2,0,-2,-2,-2,-1,-1
1443289869339613,-1,-6,-3,-2,0,-1,-2,-2
1443289869340613,-7,-19,-2,-2,-1,0,2,-1
1443289869340613,7,23,2,-3,0,-2,-1,0
1443289869361627,-7,-9,0,-1,1,0,0,-1
1443289869361627,-1,0,-4,-5,-2,-1,-1,-2
1443289869362629,-1,-9,0,6,2,1,0,1
1443289869362629,1,0,-2,-1,-2,-2,-3,-2
1443289869376638,-8,-4,-3,-2,-1,-1,0,-1
1443289869376638,3,-2,0,1,-1,-1,0,-1
1443289869377639,-2,11,3,-1,-2,-3,-8,-2
1443289869377639,-5,1,-3,0,-1,0,2,-1
1443289869399652,4,8,0,-2,-1,0,-1,2
1443289869399652,2,-1,0,0,0,0,-3,0
1443289869400653,-7,-10,-1,2,0,-2,-2,-1
1443289869400653,4,5,2,0,-1,-3,-4,0
1443289869421669,-3,-13,-2,-2,-2,-2,-2,0
1443289869421669,-1,20,3,1,0,0,0,1
1443289869422667,1,-18,-7,-4,-1,2,2,-1
1443289869422667,2,12,3,1,0,0,-2,0
1443289869436676,0,6,-3,-2,-2,-1,-1,-4
1443289869436676,-1,1,1,-1,0,1,-1,-1
1443289869437677,-5,-9,-4,-2,-1,-1,1,0
1443289869437677,3,-20,-6,-2,-1,0,1,-1
1443289869459693,-4,5,-1,-1,0,0,-1,-2
1443289869459693,3,-2,2,1,0,-2,0,-2
1443289869459693,-2,0,0,-1,-1,-1,-1,-2
1443289869459693,-3,-3,1,-4,0,2,-1,-1
1443289869481707,2,5,4,7,3,-1,-2,1
1443289869481707,-3,-6,-2,0,-1,-2,0,0
1443289869482708,5,5,1,0,-2,-1,1,0
1443289869482708,-5,3,0,-2,-1,0,-2,-3
1443289869496716,2,-6,-2,-2,-1,-1,0,1
1443289869496716,-4,8,0,0,-3,1,0,-1
1443289869497717,-7,-4,2,-2,-2,-2,-1,-1
1443289869497717,6,-3,-1,1,1,-2,-4,0
1443289869519736,7,6,1,-1,0,1,0,-1
1443289869519736,2,-12,-1,0,-1,-1,-1,-1
1443289869520735,-4,11,-2,-2,-1,-1,2,-2
1443289869520735,-5,3,-3,-1,1,-2,-2,-1
1443289869541747,2,0,2,-2,-1,0,-2,-1
1443289869541747,-5,-10,-4,-1,0,1,-2,-2
1443289869542747,2,2,2,1,0,-1,-2,-2
1443289869542747,-7,-21,-4,-2,-2,-1,0,1
1443289869556760,-1,19,1,-4,-1,-1,-1,-3
1443289869556760,5,2,2,0,2,0,1,-2
1443289869557758,3,0,5,3,-1,0,-1,0
1443289869557758,0,0,-1,3,-1,-1,0,-1
1443289869579773,2,-2,-2,-2,0,1,0,1
1443289869579773,-16,-21,-1,-3,-1,0,-1,-1
1443289869579773,9,4,-11,-3,-1,-1,-1,0
1443289869579773,3,-5,0,-2,-1,0,-1,-3
1443289869601788,-7,-5,-4,-3,-3,-1,-2,-2
1443289869601788,2,10,3,-1,0,-3,0,0
1443289869602788,-14,-15,0,2,0,1,0,-1
1443289869602788,18,21,-1,-2,0,-1,0,1
1443289869616796,-3,-20,-2,0,-1,0,0,2
1443289869616796,2,25,1,1,2,0,0,2
1443289869617797,0,0,-2,-3,-2,0,-1,-3
1443289869617797,-6,-2,-3,-1,-3,-1,-1,-2
1443289869639811,-2,-4,6,3,-1,-2,-2,-2
1443289869639811,0,-11,-6,-3,-2,-1,-2,0
1443289869639811,-1,9,-2,-3,0,-3,-6,1
1443289869639811,0,-2,2,0,-1,0,1,1
1443289869661828,-1,-4,-3,-4,0,0,1,1
1443289869661828,-2,3,2,3,-1,0,-1,-1
1443289869662830,4,2,0,1,-2,0,0,-2
1443289869662830,-3,-1,1,-2,-1,-3,-2,-1
1443289869676837,-3,0,0,0,1,1,-3,0
1443289869676837,-1,-19,-4,-4,-2,0,0,0
1443289869677838,0,9,2,-3,-2,-2,-2,-1
1443289869677838,-3,-4,3,0,-1,0,0,-1
1443289869699852,-3,11,-2,-1,-1,-2,-2,-1
1443289869699852,5,-4,0,1,-1,-1,0,-1
1443289869699852,-1,-8,-5,-1,0,0,2,0
1443289869699852,-5,-3,-3,-3,0,-2,-3,1
1443289869721874,-3,0,-2,-1,-2,0,-2,-1
1443289869721874,-7,-4,0,3,-2,-1,-1,-1
1443289869722868,19,6,-4,-2,-2,-2,-1,-1
1443289869722868,-11,-14,-3,2,0,1,1,0
1443289869736878,-5,-21,-4,-3,-1,1,1,0
1443289869736878,-6,9,-4,-6,-3,-3,0,-2
1443289869737878,1,2,0,0,-1,0,-2,1
1443289869737878,1,8,-1,-1,1,1,0,1
1443289869758893,4,1,1,1,-1,1,2,-1
1443289869758893,-1,0,1,0,2,-1,-1,-1
1443289869759893,-7,-6,-1,0,-1,-1,0,0
1443289869759893,2,2,0,-2,-2,-3,-3,0
1443289869781908,-7,-30,-5,-1,0,-2,-2,1
1443289869781908,17,48,2,-2,0,0,0,1
1443289869782907,-5,0,2,0,1,-2,-1,-3
1443289869782907,-5,-1,0,1,0,-1,-2,-4
1443289869796918,-1,-4,0,3,0,-2,1,-1
1443289869796918,4,-6,-1,0,0,0,0,1
1443289869797918,-5,-14,-1,-1,-1,-1,-2,0
1443289869797918,4,3,3,-1,0,1,0,1
1443289869819939,1,10,0,1,-1,0,-3,-4
1443289869819939,-1,-17,-4,-4,0,0,2,1
1443289869819939,-6,-20,-2,3,-3,-1,0,-2
1443289869819939,1,13,0,0,1,-1,2,-1
1443289869841948,-4,4,1,-1,-2,-3,-3,-3
1443289869841948,-2,-7,0,2,1,-2,-2,-1
1443289869842948,1,10,-2,-5,0,0,0,1
1443289869842948,0,-17,-2,-2,-2,1,-1,0
1443289869856959,6,14,2,2,0,2,-2,2
1443289869856959,-5,-1,-1,-1,-1,-2,0,-3
1443289869857958,7,-10,0,1,-1,-1,-1,0
1443289869857958,-4,12,-3,-1,-1,-1,0,-2
1443289869878972,4,8,-1,-2,-1,-2,1,0
1443289869878972,-5,-15,-5,-4,0,-2,-1,-3
1443289869879973,-3,-3,4,1,3,2,2,3
1443289869879973,3,11,1,-1,-1,-2,-2,-4
1443289869901988,-5,-1,-2,3,-2,-1,-2,-1
1443289869901988,-7,-3,-3,0,-1,-1,-3,-1
1443289869902988,-2,-5,-3,-4,-2,-2,-1,-2
1443289869902988,1,2,-2,-1,-1,-1,-1,1
1443289869916007,6,-2,2,-6,-2,-2,2,2
1443289869916007,-1,-6,-2,1,-3,-1,0,-2
1443289869925053,-2,15,4,6,1,-1,-1,0
1443289869925053,4,1,2,0,-1,1,0,-2
1443289869939017,-7,-8,1,-3,-1,-1,0,-2
1443289869939017,3,3,-1,0,0,0,0,0
1443289869940013,0,-1,-3,-4,-1,0,4,0
1443289869940013,-3,-13,0,0,1,-3,-2,1
1443289869962027,1,24,2,0,1,-1,-1,-1
1443289869962027,4,-6,-3,-5,-2,-1,-1,1
1443289869963028,-12,-12,-5,-2,-1,0,0,-3
1443289869963028,-1,-2,-2,3,1,0,4,1
1443289869977041,2,8,3,1,-1,0,0,0
1443289869977041,0,-4,2,1,0,-1,-4,0
1443289869978039,4,8,1,-2,-2,0,-2,0
1443289869978039,-2,-1,-1,-2,-1,1,4,0
1443289869999052,-8,-12,-6,-3,-3,-3,-1,-3
1443289869999052,1,17,1,0,1,2,-1,1
1443289870000053,0,-11,-4,0,0,-1,-2,-1
1443289870000053,2,-15,-2,2,0,0,-5,0
1443289870022072,-4,10,-2,-5,-2,-3,-1,-2
1443289870022072,-7,6,-3,-1,-3,-3,-3,-2
1443289870023068,0,-13,-4,0,-1,-2,-1,1
1443289870023068,-3,5,1,-2,-2,-2,-1,-2
1443289870036084,8,-6,-1,0,1,-1,0,0
1443289870036084,-6,1,1,-5,-3,-3,-6,-3
1443289870044083,-3,2,1,2,1,1,2,0
1443289870044083,2,8,-1,0,-1,-1,-2,0
1443289870059093,-2,-15,-6,-4,0,-1,0,0
1443289870059093,-4,3,-1,2,-1,0,0,2
1443289870060093,7,10,8,3,0,-1,-1,-2
1443289870060093,-2,-7,-4,-2,-3,1,-4,-3
1443289870082109,-3,3,-2,-1,0,0,0,-2
1443289870082109,-2,-40,-4,2,2,0,-4,0
1443289870083110,4,43,-1,-3,-2,-1,0,1
1443289870083110,0,8,-6,-5,-1,-3,-1,-3
1443289870096118,-2,-8,2,1,0,-1,0,0
1443289870096118,-1,-15,-2,-1,-1,1,2,1
1443289870104124,-2,1,0,-1,-1,-2,-2,-2
1443289870104124,-1,-5,1,-3,0,-1,0,1
1443289870119136,5,12,-2,1,-1,-1,-2,-1
1443289870119136,0,2,-1,-3,-3,-2,-1,-3
1443289870120134,-3,-6,-3,-2,-1,-1,0,-2
1443289870120134,-4,1,1,3,0,-1,-1,1
1443289870142150,-5,-18,-7,-1,0,0,1,-1
1443289870142150,13,14,3,-3,-3,0,3,1
1443289870142150,-3,-1,1,-5,0,1,-2,-1
1443289870142150,-4,-3,1,7,0,-2,-2,-3
1443289870156158,0,-7,3,-3,1,0,-1,1
1443289870156158,1,-1,-2,0,-2,1,0,0
1443289870164162,4,-1,-1,-1,-2,-1,-1,0
1443289870164162,-4,-10,0,0,-2,0,0,-1
1443289870179179,1,7,1,4,-1,0,-7,-2
1443289870179179,-8,-5,-2,-2,0,-1,1,-1
1443289870180178,4,5,-2,-4,-3,-1,-1,1
1443289870180178,-3,2,2,-1,0,-1,-2,-1
1443289870202187,3,1,2,1,-1,-2,2,1
1443289870202187,4,1,-1,-1,0,0,-1,-2
1443289870202187,-6,3,2,2,-1,-2,-5,-1
1443289870202187,0,1,0,-2,-2,-3,-9,-1
1443289870216198,-6,-9,-5,-2,-1,3,5,-1
1443289870216198,1,16,3,2,0,-4,-14,-1
1443289870224201,-9,-28,-3,-1,-1,-1,-3,2
1443289870224201,8,7,-9,-8,-2,-2,4,-3
1443289870239220,-9,-17,5,6,-3,-4,-6,-1
1443289870239220,1,7,-5,-3,-3,5,3,0
1443289870240216,-13,-13,-4,-1,6,-7,-20,-4
1443289870240216,7,-5,-8,-7,-14,-7,-6,-2
1443289870262228,0,5,0,-4,-6,-2,10,3
1443289870262228,4,17,11,3,2,0,1,0
1443289870262228,7,6,1,-2,-4,0,-2,-2
1443289870262228,-1,-55,-24,-2,8,7,11,4
1443289870276237,-4,64,7,-2,3,-4,-7,-4
1443289870276237,-3,-31,-10,-3,-3,-1,3,-2
1443289870284243,1,22,11,2,3,7,1,-2
1443289870284243,-10,-2,6,1,0,5,-2,0
1443289870299254,-1,-10,-3,4,4,0,-1,1
1443289870299254,1,-1,0,2,2,-5,-4,1
1443289870300252,-12,-53,1,0,0,2,14,1
1443289870300252,11,81,13,0,-1,3,-9,-4
1443289870322268,-1,-17,-3,-2,-4,-10,5,-4
1443289870322268,-4,2,-23,-10,-1,0,0,2
1443289870323269,9,2,-10,-1,-5,-14,9,2
1443289870323269,1,-14,2,2,0,-5,4,3
1443289870336284,-1,-13,-2,1,1,0,-12,-4
1443289870336284,-11,-14,21,7,3,-1,2,-1
1443289870344285,-1,2,-14,-11,-5,2,3,-1
1443289870344285,-4,30,-9,-3,1,-3,-7,-1
1443289870359294,4,-5,2,7,3,6,6,2
1443289870359294,-1,-40,-4,0,1,7,14,0
1443289870360295,3,58,8,1,-3,5,-13,-3
1443289870360295,-7,-8,15,0,1,-4,5,5
1443289870382308,-2,-14,-16,-10,-7,1,-2,1
1443289870382308,0,15,18,6,4,0,5,-1
1443289870389320,3,8,-10,0,0,-3,-6,-3
1443289870389320,-4,-32,-1,1,-1,-1,-1,-4
1443289870405325,-2,5,-3,-2,-4,0,-2,0
1443289870405325,3,14,0,-5,-2,-3,-5,0
1443289870406323,-5,-10,2,1,0,1,2,-2
1443289870406323,0,-32,-7,4,2,0,1,-1
1443289870419334,4,-18,-6,-4,0,0,0,0
1443289870419334,-3,24,3,2,0,-2,-5,-3
1443289870420335,-7,-21,-1,-2,1,-2,2,-2
1443289870420335,3,-4,-6,1,0,1,-2,-1
1443289870442348,-2,52,14,4,2,8,4,0
1443289870442348,14,2,-8,-4,-6,-8,-3,-2
1443289870442348,-8,-14,13,2,2,-3,3,2
1443289870442348,-7,-3,-15,-4,-3,-3,0,0
1443289870464363,14,4,-1,-4,-1,-2,-3,0
1443289870464363,-15,-28,0,0,6,4,-8,-2
1443289870465362,6,29,-1,1,-6,-2,4,-2
1443289870465362,4,-11,5,-2,-4,-4,-5,-1
1443289870479373,-5,-30,-5,-3,1,-3,-4,1
1443289870479373,-5,14,-3,-4,-4,-4,4,-2
1443289870480374,3,-14,-1,-1,-3,1,-9,-1
1443289870480374,-2,12,5,1,5,-4,-4,-3
1443289870502552,-4,-8,-4,-2,0,-1,-6,1
1443289870502552,3,-17,-1,7,3,2,7,2
1443289870502552,2,39,1,-1,2,0,-3,0
1443289870502552,-2,-55,-9,-3,-8,1,-2,-2
1443289870524404,12,76,10,-2,-6,0,8,0
1443289870524404,9,5,-1,-2,1,-7,-12,-1
1443289870526404,-20,-72,-10,-1,-3,0,6,4
1443289870526404,4,61,9,-1,5,1,-7,-5
1443289870539431,-4,-26,-2,3,4,-1,-7,-2
1443289870539431,-5,6,0,-2,-6,0,-3,-5
1443289870540416,2,5,-6,1,2,6,4,4
1443289870540416,2,-11,2,-2,-3,-3,-9,-2
1443289870562427,0,-8,1,-3,-3,-2,-2,1
1443289870562427,0,11,0,1,7,2,5,1
1443289870562427,8,8,0,-2,-5,-3,-8,-3
1443289870562427,-6,-35,-4,-1,-2,-5,7,2
1443289870584451,2,28,3,-1,-1,0,-3,-4
1443289870584451,-6,-20,-5,-3,-2,0,1,0
1443289870585444,6,9,3,-2,2,0,-2,-1
1443289870585444,-4,-9,3,-2,-3,3,3,0
1443289870599454,-1,8,1,3,2,-2,-1,0
1443289870599454,-11,-15,-3,-3,-5,-3,-1,1
1443289870600455,0,4,0,-2,0,1,-4,-4
1443289870600455,5,13,-3,4,1,3,4,4
1443289870622468,-8,-23,-4,-3,1,-3,-1,-2
1443289870622468,0,-3,-2,3,-4,1,-4,-1
1443289870622468,-3,-17,0,4,0,-1,2,0
1443289870622468,-1,46,7,-1,-1,3,2,0
1443289870644482,2,-15,-7,-5,-1,-4,-3,-3
1443289870644482,4,12,3,0,1,-4,-8,-2
1443289870645483,5,-6,2,2,1,4,19,4
1443289870645483,-17,-23,-7,0,0,-1,-3,-1
1443289870660495,6,-27,-5,-1,-2,2,1,2
1443289870660495,6,46,1,-5,-4,-2,-6,-2
1443289870661495,-8,-28,-5,0,0,-4,-6,-1
1443289870661495,4,34,2,2,3,4,10,3
1443289870681507,1,-27,-1,0,-3,-1,-4,1
1443289870681507,-7,27,1,-2,-2,-1,-1,-1
1443289870682508,4,41,4,1,1,-3,-4,-1
1443289870682508,-9,-6,1,-4,-2,-2,0,0
1443289870704524,-7,-9,-3,-2,4,1,-1,-1
1443289870704524,4,-23,-4,-1,-10,-2,1,-2
1443289870705523,5,21,0,0,0,-1,-1,-1
1443289870705523,-1,-13,2,-1,0,-1,-4,0
1443289870719534,3,21,0,2,-2,0,2,1
1443289870719534,0,-9,-5,-4,3,0,1,-1
1443289870720534,-6,-9,-7,-9,-3,-1,-2,-2
1443289870720534,2,-23,-7,8,-1,1,0,-1
1443289870741547,-2,20,14,2,0,0,-3,-1
1443289870741547,1,30,0,4,1,2,1,1
1443289870742550,-1,-19,-1,-3,-4,-5,-5,-3
1443289870742550,-6,-9,-9,-4,1,-2,3,0
1443289870764564,4,24,1,-1,-1,0,1,-3
1443289870764564,1,9,2,2,-3,-2,-3,-1
1443289870765563,-13,-27,-3,0,-3,-3,-5,-2
1443289870765563,8,22,5,-2,2,-1,1,-5
1443289870779573,1,-6,-2,1,-2,-3,-1,1
1443289870779573,-6,-38,-4,0,1,0,3,2
1443289870780574,-9,-23,-6,-1,1,2,-1,-2
1443289870780574,6,31,6,-1,-4,-4,-13,-4
1443289870801588,-7,-13,-6,-3,-1,7,10,-4
1443289870801588,9,-1,1,-2,-2,-1,4,5
1443289870802589,-3,1,-4,2,2,-1,-1,-1
1443289870802589,0,10,3,1,-3,-1,-1,0
1443289870824611,3,-3,-2,-2,0,-3,-2,1
1443289870824611,-13,-12,-2,-2,-2,-1,-1,-2
1443289870825605,5,-20,-9,-1,-1,1,4,1
1443289870825605,2,16,6,-1,-3,-4,-5,-2
1443289870839613,-5,17,-1,0,0,-2,-5,-3
1443289870839613,0,-22,0,1,1,1,4,0
1443289870840613,-1,1,1,1,3,-1,-2,0
1443289870840613,5,27,1,-3,-6,1,1,-1
1443289870861627,-8,-28,-1,-2,-3,-2,-1,0
1443289870861627,-5,-11,1,4,1,-1,-1,-1
1443289870862629,1,19,0,-1,1,-2,-8,-4
1443289870862629,4,-29,0,2,0,3,8,4
1443289870884642,-5,11,4,-1,1,-3,0,0
1443289870884642,1,18,-9,0,-1,0,-4,-5
1443289870885643,0,1,4,-2,-2,-1,1,-2
1443289870885643,-8,-21,-3,-4,-3,-1,-4,-2
1443289870898654,8,-4,-2,-2,2,-3,-5,3
1443289870898654,-2,-7,2,-1,0,0,-1,1
1443289870906670,-1,7,1,-2,-3,0,0,-1
1443289870906670,1,-4,0,0,0,1,0,2
1443289870921668,-2,1,1,2,-3,-1,-3,-1
1443289870921668,1,-1,-1,1,1,3,4,1
1443289870922669,-1,-22,-2,0,2,0,1,1
1443289870922669,4,24,1,-3,-3,-4,-2,-3
1443289870944683,-3,-26,-11,-2,0,-1,-2,0
1443289870944683,1,6,3,1,-2,-1,-2,-1
1443289870945685,0,-10,3,1,-1,0,4,0
1443289870945685,-2,-2,-1,-1,-1,-3,-10,-3
1443289870958695,10,9,-5,-4,-2,6,10,-2
1443289870958695,-10,-15,-4,-4,2,0,8,1
1443289870966700,15,36,2,-2,-10,0,3,1
1443289870966700,-6,-17,-1,2,2,0,0,-1
1443289870981708,-3,6,1,5,-1,-1,-1,-3
1443289870981708,3,-3,-2,-5,-2,-2,-5,-1
1443289870982709,-5,1,2,0,2,1,-1,2
1443289870982709,-6,-2,-2,-4,9,1,-4,0
1443289871004728,4,-5,-2,-2,-11,-4,-1,1
1443289871004728,2,-3,-3,0,-2,-3,-2,1
1443289871005725,-5,6,-4,-2,0,-4,-1,-6
1443289871005725,0,0,-3,-1,-3,2,3,1
1443289871018732,-11,-19,2,1,4,-2,-2,-3
1443289871018732,0,-28,-3,-5,-1,0,-4,-1
1443289871026738,4,17,-5,-4,-3,-3,-4,0
1443289871026738,2,9,0,1,-1,0,1,1
1443289871041749,-3,-10,0,3,2,1,1,0
1443289871041749,-4,16,2,-2,2,-4,-2,-4
1443289871042749,1,-5,1,0,0,0,-2,0
1443289871042749,-1,-9,-4,-1,0,1,3,-1
1443289871064764,-9,-5,0,-2,-2,-2,-3,-1
1443289871064764,7,0,1,0,-1,-2,-7,-2
1443289871064764,-6,8,-4,-1,0,0,1,2
1443289871064764,-2,1,1,0,-1,-1,5,-1
1443289871078772,1,15,-2,-3,-3,-2,-4,-3
